0.38561,0,1,90
0.19723,0,2,90
0.27675,0,3,90
-0.32328,0,4,90
-0.71978,0,5,90
-0.98368,0,6,90
-0.2365,0,7,90
-0.32219,0,8,90
-0.42892,0,9,90
-0.22968,0,10,90
-0.20407,0,11,90
0.38354,0,12,90
0.26926,0,13,90
0.089106,0,14,90
0.066928,0,15,90
0.42885,0,16,90
0.57931,0,17,90
0.37975,0,18,90
0.86365,0,19,90
0.55968,0,20,90
-0.16385,0,21,90
-0.78364,0,22,90
-0.69191,0,23,90
0.23565,0,24,90
0.87936,0,25,90
0.6411,0,26,90
-0.18997,0,27,90
-0.89095,0,28,90
-1.1488,0,29,90
-0.65712,0,30,90
-0.01798,0,31,90
0.80818,0,32,90
1.5397,0,33,90
0.84885,0,34,90
0.55317,0,35,90
0.23619,0,36,90
-0.248,0,37,90
-0.90668,0,38,90
-1.0079,0,39,90
-0.4132,0,40,90
0.21647,0,41,90
0.30428,0,42,90
-0.11423,0,43,90
-0.58045,0,44,90
-0.69731,0,45,90
-0.066618,0,46,90
0.46036,0,47,90
0.2902,0,48,90
0.13054,0,49,90
0.44806,0,50,90
0.42664,0,51,90
-0.033494,0,52,90
-0.012375,0,53,90
0.24807,0,54,90
0.37317,0,55,90
0.24972,0,56,90
0.26681,0,57,90
-0.68297,0,58,90
-1.0498,0,59,90
-0.61437,0,60,90
0.063768,0,61,90
0.73501,0,62,90
0.46153,0,63,90
0.96918,0,64,90
0.84417,0,65,90
-0.13838,0,66,90
-0.64529,0,67,90
-1.1457,0,68,90
-1.3495,0,69,90
-0.68149,0,70,90
-0.039497,0,71,90
0.3329,0,72,90
0.50578,0,73,90
0.23006,0,74,90
0.11572,0,75,90
0.45318,0,76,90
0.39172,0,77,90
0.21349,0,78,90
1.241,0,79,90
1.6481,0,80,90
-0.10232,0,81,90
-0.9713,0,82,90
-0.96192,0,83,90
-0.90577,0,84,90
-0.86942,0,85,90
-0.87942,0,86,90
-0.76998,0,87,90
-0.55621,0,88,90
-0.034245,0,89,90
0.55413,0,90,90
1.4892,0,91,90
0.65229,0,92,90
-0.051655,0,93,90
-0.51121,0,94,90
-0.57765,0,95,90
-0.21634,0,96,90
0.068689,0,97,90
0.70958,0,98,90
1.1405,0,99,90
0.53045,0,100,90
-0.15687,0,101,90
-0.039204,0,102,90
-0.36834,0,103,90
-1.0058,0,104,90
-0.83583,0,105,90
-0.66802,0,106,90
-0.14412,0,107,90
0.23196,0,108,90
0.65053,0,109,90
0.64085,0,110,90
0.56805,0,111,90
0.28153,0,112,90
0.58545,0,113,90
-0.17971,0,114,90
-0.80946,0,115,90
0.14554,0,116,90
0.33797,0,117,90
-0.28276,0,118,90
-0.80485,0,119,90
-0.87478,0,120,90
0.047205,0,121,90
0.56585,0,122,90
0.58804,0,123,90
-0.15292,0,124,90
-0.13173,0,125,90
0.24054,0,126,90
0.61184,0,127,90
0.23725,0,128,90
0.42943,0,129,90
0.30499,0,130,90
0.051626,0,131,90
-0.21094,0,132,90
0.20513,0,133,90
-0.040461,0,134,90
-0.7933,0,135,90
-1.0554,0,136,90
-0.42209,0,137,90
0.078981,0,138,90
0.28803,0,139,90
0.56106,0,140,90
0.42797,0,141,90
0.036244,0,142,90
-0.22611,0,143,90
-0.029312,0,144,90
0.080963,0,145,90
-0.02925,0,146,90
0.29711,0,147,90
0.098666,0,148,90
0.075924,0,149,90
0.22863,0,150,90
-0.20309,0,151,90
-0.8438,0,152,90
-0.54976,0,153,90
0.53238,0,154,90
0.40635,0,155,90
-0.037568,0,156,90
-0.088604,0,157,90
0.038519,0,158,90
0.017255,0,159,90
-0.078586,0,160,90
-0.15519,0,161,90
0.034225,0,162,90
-0.44455,0,163,90
-0.28524,0,164,90
-0.16447,0,165,90
0.23686,0,166,90
0.47968,0,167,90
0.124,0,168,90
0.30713,0,169,90
0.27106,0,170,90
0.20643,0,171,90
0.59888,0,172,90
-0.041929,0,173,90
-0.21252,0,174,90
-0.41407,0,175,90
-0.28076,0,176,90
-0.041298,0,177,90
0.04645,0,178,90
-0.16108,0,179,90
-0.41249,0,180,90
0.15062,0,181,90
-0.58265,0,182,90
-0.83437,0,183,90
-0.42179,0,184,90
0.077393,0,185,90
0.7561,0,186,90
0.89935,0,187,90
0.69808,0,188,90
0.52647,0,189,90
0.11423,0,190,90
-0.20095,0,191,90
-0.30339,0,192,90
0.042055,0,193,90
0.26292,0,194,90
-0.16574,0,195,90
-0.63816,0,196,90
-0.5369,0,197,90
-0.33709,0,198,90
0.25337,0,199,90
-0.24401,0,200,90
-0.37139,0,201,90
0.17653,0,202,90
0.40398,0,203,90
0.11354,0,204,90
-0.12618,0,205,90
0.15242,0,206,90
0.14133,0,207,90
0.12937,0,208,90
0.57626,0,209,90
0.87498,0,210,90
0.78282,0,211,90
0.14146,0,212,90
-0.077257,0,213,90
-0.70109,0,214,90
-0.90743,0,215,90
-0.80267,0,216,90
-0.56517,0,217,90
-0.10837,0,218,90
-0.14788,0,219,90
0.066834,0,220,90
0.2824,0,221,90
0.59203,0,222,90
0.22057,0,223,90
-0.021093,0,224,90
0.010402,0,225,90
0.22998,0,226,90
-0.72864,0,227,90
-0.6589,0,228,90
0.38137,0,229,90
0.29803,0,230,90
0.21799,0,231,90
0.23493,0,232,90
0.61694,0,233,90
0.62256,0,234,90
-0.092397,0,235,90
-0.59581,0,236,90
-0.66935,0,237,90
-0.73974,0,238,90
-0.45348,0,239,90
-0.013414,0,240,90
0.48663,0,241,90
0.16221,0,242,90
0.91085,0,243,90
0.63221,0,244,90
0.078122,0,245,90
-0.27135,0,246,90
0.032076,0,247,90
0.18997,0,248,90
-0.37411,0,249,90
-0.64599,0,250,90
-0.41726,0,251,90
-0.4163,0,252,90
-0.18574,0,253,90
-0.045877,0,254,90
0.029028,0,255,90
0.25895,0,0,90
0.16726,0,1,90
0.40897,0,2,90
0.54688,0,3,90
0.44023,0,4,90
-0.36686,0,5,90
-0.44367,0,6,90
-0.51072,0,7,90
-0.41679,0,8,90
0.097911,0,9,90
-0.27329,0,10,90
0.54112,0,11,90
0.26929,0,12,90
0.55506,0,13,90
0.16877,0,14,90
-0.20734,0,15,90
-0.43651,0,16,90
-0.23468,0,17,90
0.042563,0,18,90
0.83867,0,19,90
0.44642,0,20,90
0.096769,0,21,90
0.045484,0,22,90
0.083727,0,23,90
-0.24747,0,24,90
0.30214,0,25,90
0.067098,0,26,90
0.17665,0,27,90
-0.24434,0,28,90
-0.29168,0,29,90
-1.0012,0,30,90
-0.89613,0,31,90
-0.3813,0,32,90
0.15439,0,33,90
0.30134,0,34,90
0.76021,0,35,90
1.449,0,36,90
0.74504,0,37,90
-0.24153,0,38,90
-1.3188,0,39,90
-0.69085,0,40,90
-0.69694,0,41,90
-0.035669,0,42,90
0.19562,0,43,90
0.056637,0,44,90
0.48385,0,45,90
0.40766,0,46,90
0.18072,0,47,90
-0.17331,0,48,90
0.34494,0,49,90
0.44467,0,50,90
0.26166,0,51,90
-0.85091,0,52,90
-0.34876,0,53,90
-0.58619,0,54,90
-0.20346,0,55,90
-0.096484,0,56,90
0.39466,0,57,90
0.1782,0,58,90
0.23035,0,59,90
0.29232,0,60,90
0.35391,0,61,90
-0.16517,0,62,90
0.019225,0,63,90
0.071124,0,64,90
-0.62085,0,65,90
-0.33553,0,66,90
0.027722,0,67,90
0.6264,0,68,90
0.21272,0,69,90
-0.063444,0,70,90
-0.44411,0,71,90
-0.35514,0,72,90
0.022925,0,73,90
0.95666,0,74,90
0.74688,0,75,90
0.45388,0,76,90
-0.87658,0,77,90
-0.98237,0,78,90
-0.5126,0,79,90
-0.093795,0,80,90
0.17696,0,81,90
0.53833,0,82,90
0.33532,0,83,90
0.26481,0,84,90
-0.20871,0,85,90
-0.4493,0,86,90
1.3218,0,87,90
0.31503,0,88,90
-0.8167,0,89,90
-1.1024,0,90,90
0.18873,0,91,90
0.1858,0,92,90
0.68349,0,93,90
0.13339,0,94,90
-0.1983,0,95,90
-0.37642,0,96,90
-0.52183,0,97,90
-0.17221,0,98,90
0.31099,0,99,90
0.31731,0,100,90
0.19152,0,101,90
0.10269,0,102,90
-0.11722,0,103,90
-0.93775,0,104,90
-0.43794,0,105,90
0.091081,0,106,90
-0.08437,0,107,90
0.069673,0,108,90
0.47873,0,109,90
0.7512,0,110,90
0.15653,0,111,90
-0.41261,0,112,90
-0.4035,0,113,90
-0.45591,0,114,90
-0.1179,0,115,90
0.62714,0,116,90
-0.48562,0,117,90
-0.72326,0,118,90
0.15306,0,119,90
0.86109,0,120,90
0.55882,0,121,90
0.39668,0,122,90
0.37061,0,123,90
-0.2041,0,124,90
-0.712,0,125,90
-0.43967,0,126,90
0.63671,0,127,90
0.19821,0,128,90
-0.068357,0,129,90
0.18081,0,130,90
-0.83328,0,131,90
-0.85296,0,132,90
0.45184,0,133,90
0.67094,0,134,90
0.3871,0,135,90
0.32761,0,136,90
-0.43432,0,137,90
-0.593,0,138,90
-0.79476,0,139,90
0.0705,0,140,90
0.19181,0,141,90
0.66115,0,142,90
0.97202,0,143,90
0.40871,0,144,90
0.060316,0,145,90
-0.54983,0,146,90
-0.49882,0,147,90
0.32394,0,148,90
0.36315,0,149,90
-0.025037,0,150,90
0.019097,0,151,90
-0.087861,0,152,90
-0.67261,0,153,90
0.42475,0,154,90
0.48868,0,155,90
0.45749,0,156,90
-0.33568,0,157,90
0.17636,0,158,90
0.15858,0,159,90
-0.01359,0,160,90
0.10449,0,161,90
0.095811,0,162,90
0.16966,0,163,90
-0.35152,0,164,90
-0.37239,0,165,90
-0.60663,0,166,90
-0.64337,0,167,90
-0.63214,0,168,90
-0.51431,0,169,90
-0.080267,0,170,90
-0.14304,0,171,90
-0.075015,0,172,90
-0.33255,0,173,90
0.31699,0,174,90
1.0029,0,175,90
0.86788,0,176,90
0.54321,0,177,90
0.069583,0,178,90
0.13585,0,179,90
-0.047191,0,180,90
-0.47085,0,181,90
-0.58062,0,182,90
-0.28399,0,183,90
0.18007,0,184,90
0.040391,0,185,90
-0.059611,0,186,90
0.28849,0,187,90
0.3564,0,188,90
0.112,0,189,90
-0.034211,0,190,90
-0.28241,0,191,90
-0.19373,0,192,90
0.18237,0,193,90
0.031025,0,194,90
0.047446,0,195,90
-0.026942,0,196,90
-0.22263,0,197,90
0.012031,0,198,90
0.13769,0,199,90
0.093209,0,200,90
0.12633,0,201,90
0.26504,0,202,90
0.44159,0,203,90
-0.29134,0,204,90
-0.3886,0,205,90
-0.22429,0,206,90
-0.022025,0,207,90
-0.34963,0,208,90
-0.26027,0,209,90
0.29192,0,210,90
0.24086,0,211,90
0.25899,0,212,90
0.1087,0,213,90
-0.21408,0,214,90
-0.16998,0,215,90
0.024177,0,216,90
-0.026177,0,217,90
0.24757,0,218,90
0.53887,0,219,90
0.19839,0,220,90
-0.21516,0,221,90
-0.2556,0,222,90
0.14125,0,223,90
-0.062187,0,224,90
-0.13348,0,225,90
-0.15293,0,226,90
-0.17646,0,227,90
-0.088556,0,228,90
-0.37105,0,229,90
-0.30829,0,230,90
-0.12873,0,231,90
-0.13384,0,232,90
-0.26582,0,233,90
0.058924,0,234,90
0.41355,0,235,90
0.47775,0,236,90
0.16772,0,237,90
0.07221,0,238,90
0.12375,0,239,90
-0.031144,0,240,90
0.014468,0,241,90
-0.086413,0,242,90
0.35341,0,243,90
-0.012529,0,244,90
-0.35532,0,245,90
-0.48642,0,246,90
-0.17505,0,247,90
-0.18506,0,248,90
-0.15918,0,249,90
0.22858,0,250,90
0.29825,0,251,90
0.25247,0,252,90
0.17788,0,253,90
0.30599,0,254,90
0.076402,0,255,90
-0.026205,0,0,90
-0.023043,0,1,90
-0.05477,0,2,90
-0.15644,0,3,90
-0.31905,0,4,90
-0.1599,0,5,90
0.29048,0,6,90
0.23161,0,7,90
0.27631,0,8,90
0.11647,0,9,90
0.11174,0,10,90
-0.34336,0,11,90
-0.4922,0,12,90
-0.12736,0,13,90
0.22115,0,14,90
0.21667,0,15,90
0.15175,0,16,90
-0.012907,0,17,90
-0.28866,0,18,90
-0.036727,0,19,90
0.19523,0,20,90
0.21497,0,21,90
0.16631,0,22,90
0.11789,0,23,90
-0.07083,0,24,90
-0.17081,0,25,90
-0.037997,0,26,90
0.021109,0,27,90
-0.032109,0,28,90
0.01639,0,29,90
-0.11759,0,30,90
-0.022552,0,31,90
0.10522,0,32,90
0.13523,0,33,90
0.14503,0,34,90
0.17519,0,35,90
-0.042665,0,36,90
-0.15292,0,37,90
-0.10666,0,38,90
-0.16544,0,39,90
-0.050534,0,40,90
0.087011,0,41,90
0.061015,0,42,90
-0.069805,0,43,90
-0.022209,0,44,90
-0.24117,0,45,90
-0.50548,0,46,90
-0.19542,0,47,90
-0.059834,0,48,90
0.06865,0,49,90
0.21345,0,50,90
0.34066,0,51,90
0.2682,0,52,90
0.29662,0,53,90
0.12651,0,54,90
-0.1475,0,55,90
-0.17753,0,56,90
-0.11087,0,57,90
-0.1726,0,58,90
-0.040415,0,59,90
0.17359,0,60,90
0.13933,0,61,90
-0.077614,0,62,90
0.038137,0,63,90
-0.3224,0,64,90
-0.11888,0,65,90
-0.22117,0,66,90
-0.27136,0,67,90
0.03735,0,68,90
0.2283,0,69,90
0.25964,0,70,90
0.14621,0,71,90
0.11563,0,72,90
0.095486,0,73,90
0.055439,0,74,90
-0.055706,0,75,90
-0.149,0,76,90
-0.091461,0,77,90
-0.15807,0,78,90
-0.13822,0,79,90
-0.060574,0,80,90
0.073916,0,81,90
0.057642,0,82,90
0.14249,0,83,90
0.19068,0,84,90
0.099415,0,85,90
0.072999,0,86,90
-0.099225,0,87,90
-0.10188,0,88,90
0.030476,0,89,90
0.056175,0,90,90
0.027765,0,91,90
-0.030238,0,92,90
-0.050727,0,93,90
-0.23906,0,94,90
0.23348,0,95,90
0.13097,0,96,90
-0.12996,0,97,90
-0.12577,0,98,90
-0.022568,0,99,90
0.1154,0,100,90
0.10105,0,101,90
-0.095578,0,102,90
-0.090082,0,103,90
-0.042267,0,104,90
0.18557,0,105,90
0.062626,0,106,90
0.095327,0,107,90
0.015503,0,108,90
0.10171,0,109,90
0.011193,0,110,90
-0.049322,0,111,90
-0.093714,0,112,90
-0.30896,0,113,90
-0.047562,0,114,90
0.15699,0,115,90
0.12078,0,116,90
0.15514,0,117,90
0.14482,0,118,90
0.045419,0,119,90
-0.064622,0,120,90
-0.067232,0,121,90
-0.15156,0,122,90
-0.12156,0,123,90
-0.094552,0,124,90
-0.032358,0,125,90
-0.036918,0,126,90
0.064861,0,127,90
0.10445,0,128,90
0.18934,0,129,90
0.10561,0,130,90
-0.10219,0,131,90
-0.29726,0,132,90
-0.024335,0,133,90
-0.067179,0,134,90
-0.056261,0,135,90
0.060307,0,136,90
-0.011664,0,137,90
0.078244,0,138,90
0.22851,0,139,90
0.10288,0,140,90
0.028794,0,141,90
-0.099409,0,142,90
-0.031653,0,143,90
-0.059792,0,144,90
-0.14115,0,145,90
-0.11051,0,146,90
0.01835,0,147,90
0.10038,0,148,90
0.18283,0,149,90
0.19273,0,150,90
0.17301,0,151,90
-0.058481,0,152,90
-0.056964,0,153,90
0.016208,0,154,90
0.015015,0,155,90
-0.078692,0,156,90
-0.050947,0,157,90
-0.15734,0,158,90
-0.31996,0,159,90
-0.19214,0,160,90
-0.028207,0,161,90
0.17501,0,162,90
0.28088,0,163,90
0.048198,0,164,90
-0.07024,0,165,90
-0.049428,0,166,90
0.023541,0,167,90
0.054528,0,168,90
0.13626,0,169,90
-0.14974,0,170,90
-0.022356,0,171,90
-0.25434,0,172,90
-0.21187,0,173,90
-0.14326,0,174,90
0.046489,0,175,90
0.038056,0,176,90
-0.069947,0,177,90
-0.054478,0,178,90
0.039098,0,179,90
0.19214,0,180,90
0.25644,0,181,90
0.18043,0,182,90
0.19023,0,183,90
0.012603,0,184,90
0.082717,0,185,90
0.031206,0,186,90
0.03554,0,187,90
-0.053482,0,188,90
-0.01662,0,189,90
-0.03277,0,190,90
0.033433,0,191,90
0.059269,0,192,90
0.053709,0,193,90
0.041296,0,194,90
-0.23631,0,195,90
-0.43392,0,196,90
-0.33456,0,197,90
-0.078534,0,198,90
0.17575,0,199,90
0.1481,0,200,90
0.09117,0,201,90
0.13746,0,202,90
0.074691,0,203,90
-0.023554,0,204,90
-0.068969,0,205,90
-0.15587,0,206,90
-0.035883,0,207,90
0.02319,0,208,90
0.071138,0,209,90
-0.056535,0,210,90
-0.053416,0,211,90
0.058322,0,212,90
0.074623,0,213,90
0.79832,0,214,90
0.40099,0,215,90
-0.13216,0,216,90
-0.36672,0,217,90
-0.22649,0,218,90
-0.14591,0,219,90
-0.066965,0,220,90
-0.11286,0,221,90
-0.04898,0,222,90
0.52783,0,223,90
0.46072,0,224,90
0.015981,0,225,90
-0.3299,0,226,90
-0.3999,0,227,90
-0.31572,0,228,90
-0.31258,0,229,90
-0.10592,0,230,90
0.32683,0,231,90
0.13786,0,232,90
0.21806,0,233,90
-0.026783,0,234,90
0.045137,0,235,90
-0.030223,0,236,90
0.80539,0,237,90
0.57682,0,238,90
-0.41409,0,239,90
-0.91204,0,240,90
-1.1038,0,241,90
-0.93334,0,242,90
-0.32355,0,243,90
0.14686,0,244,90
0.60827,0,245,90
1.2423,0,246,90
0.6732,0,247,90
0.1211,0,248,90
-0.56935,0,249,90
-0.74023,0,250,90
-0.28285,0,251,90
0.011365,0,252,90
0.13343,0,253,90
0.10016,0,254,90
0.33427,0,255,90
0.64844,0,0,90
1.015,0,1,90
0.26083,0,2,90
-0.16519,0,3,90
-0.59806,0,4,90
-0.59696,0,5,90
0.70435,0,6,90
0.44127,0,7,90
0.12657,0,8,90
-0.57985,0,9,90
-0.9298,0,10,90
-0.75213,0,11,90
-0.43505,0,12,90
-0.031625,0,13,90
0.62072,0,14,90
1.9941,0,15,90
1.4908,0,16,90
0.21234,0,17,90
-0.85517,0,18,90
-1.4883,0,19,90
-1.5918,0,20,90
-0.32492,0,21,90
0.33413,0,22,90
0.097873,0,23,90
-0.32689,0,24,90
-0.68397,0,25,90
-0.5613,0,26,90
0.081678,0,27,90
0.93621,0,28,90
1.0247,0,29,90
0.88727,0,30,90
0.33945,0,31,90
-0.41051,0,32,90
-0.64455,0,33,90
-0.6159,0,34,90
-0.22983,0,35,90
0.11689,0,36,90
0.054225,0,37,90
0.080049,0,38,90
0.027433,0,39,90
0.063938,0,40,90
0.29392,0,41,90
0.78158,0,42,90
1.0661,0,43,90
0.62439,0,44,90
0.054741,0,45,90
0.04138,0,46,90
-0.57007,0,47,90
-0.94088,0,48,90
-0.84634,0,49,90
-0.50918,0,50,90
-0.11098,0,51,90
0.266,0,52,90
0.32354,0,53,90
0.88558,0,54,90
0.50152,0,55,90
-0.3,0,56,90
-0.76913,0,57,90
-0.76974,0,58,90
-0.47252,0,59,90
-0.094044,0,60,90
0.37146,0,61,90
0.47187,0,62,90
-0.106,0,63,90
-0.073745,0,64,90
0.22954,0,65,90
0.63355,0,66,90
0.86216,0,67,90
0.20239,0,68,90
-0.55636,0,69,90
-0.72171,0,70,90
-0.48002,0,71,90
-0.29946,0,72,90
-0.2226,0,73,90
-0.17877,0,74,90
-0.083139,0,75,90
0.15402,0,76,90
0.16695,0,77,90
0.19481,0,78,90
0.31535,0,79,90
0.50032,0,80,90
0.71604,0,81,90
0.42158,0,82,90
-0.3764,0,83,90
-0.41328,0,84,90
-0.21793,0,85,90
-0.051347,0,86,90
0.56916,0,87,90
0.30628,0,88,90
-0.28412,0,89,90
-0.42486,0,90,90
-0.34465,0,91,90
0.13708,0,92,90
0.41267,0,93,90
0.1311,0,94,90
-0.054608,0,95,90
-0.39135,0,96,90
-0.51071,0,97,90
-0.619,0,98,90
-0.26599,0,99,90
-0.072948,0,100,90
0.015842,0,101,90
0.37941,0,102,90
0.45466,0,103,90
0.047374,0,104,90
-0.1033,0,105,90
-0.026599,0,106,90
0.18442,0,107,90
0.66149,0,108,90
0.49795,0,109,90
0.010597,0,110,90
-0.41929,0,111,90
-0.6455,0,112,90
-0.46318,0,113,90
-0.024475,0,114,90
0.45549,0,115,90
0.46586,0,116,90
0.11737,0,117,90
-0.31931,0,118,90
-0.61703,0,119,90
-0.48369,0,120,90
-0.025529,0,121,90
0.15203,0,122,90
0.23859,0,123,90
0.21437,0,124,90
0.20862,0,125,90
0.20147,0,126,90
0.084922,0,127,90
-0.10119,0,128,90
-0.24424,0,129,90
0.29395,0,130,90
0.22128,0,131,90
0.13105,0,132,90
0.31705,0,133,90
0.17747,0,134,90
-0.18781,0,135,90
-0.33629,0,136,90
-0.26573,0,137,90
-0.24146,0,138,90
-0.22498,0,139,90
-0.20518,0,140,90
-0.28426,0,141,90
-0.25435,0,142,90
-0.23385,0,143,90
-0.14091,0,144,90
0.22942,0,145,90
0.6566,0,146,90
0.77522,0,147,90
0.58284,0,148,90
0.63107,0,149,90
0.67879,0,150,90
0.48969,0,151,90
0.029176,0,152,90
-0.50644,0,153,90
-0.85419,0,154,90
-1.0829,0,155,90
-0.92003,0,156,90
-0.60374,0,157,90
-0.3238,0,158,90
-0.18605,0,159,90
0.10511,0,160,90
0.26409,0,161,90
0.59638,0,162,90
0.57131,0,163,90
0.20096,0,164,90
-0.1382,0,165,90
0.019741,0,166,90
0.14244,0,167,90
0.29679,0,168,90
0.14653,0,169,90
-0.029622,0,170,90
-0.24555,0,171,90
0.092285,0,172,90
0.36941,0,173,90
0.68386,0,174,90
0.84722,0,175,90
0.42447,0,176,90
-0.3061,0,177,90
-0.94051,0,178,90
-0.98495,0,179,90
-0.80976,0,180,90
-0.55019,0,181,90
-0.11732,0,182,90
0.19756,0,183,90
0.29239,0,184,90
0.16243,0,185,90
0.056562,0,186,90
-0.14531,0,187,90
0.022092,0,188,90
0.31696,0,189,90
0.36729,0,190,90
0.1413,0,191,90
0.067255,0,192,90
-0.19476,0,193,90
-0.34069,0,194,90
-0.26592,0,195,90
0.30844,0,196,90
0.56497,0,197,90
1.0129,0,198,90
0.5811,0,199,90
0.11035,0,200,90
-0.6723,0,201,90
-1.1344,0,202,90
-1.2931,0,203,90
-1.1355,0,204,90
-0.58125,0,205,90
0.083233,0,206,90
0.51171,0,207,90
0.61982,0,208,90
0.78392,0,209,90
0.43881,0,210,90
0.52376,0,211,90
0.73152,0,212,90
0.57105,0,213,90
0.10727,0,214,90
-0.39765,0,215,90
-0.70518,0,216,90
-0.74022,0,217,90
-0.69245,0,218,90
-0.38955,0,219,90
-0.19667,0,220,90
0.43393,0,221,90
0.76088,0,222,90
0.72408,0,223,90
0.30436,0,224,90
-0.062681,0,225,90
-0.3875,0,226,90
-0.30697,0,227,90
0.44343,0,228,90
0.94562,0,229,90
0.8508,0,230,90
0.28146,0,231,90
-0.38297,0,232,90
-0.74958,0,233,90
-0.71262,0,234,90
-0.53729,0,235,90
-0.19318,0,236,90
0.37699,0,237,90
0.6579,0,238,90
0.48322,0,239,90
0.22473,0,240,90
-0.17372,0,241,90
-0.63704,0,242,90
-0.95077,0,243,90
-0.96235,0,244,90
-0.6607,0,245,90
-0.28938,0,246,90
0.13145,0,247,90
0.38312,0,248,90
0.65765,0,249,90
0.7665,0,250,90
0.49815,0,251,90
-0.025174,0,252,90
-0.31931,0,253,90
-0.26538,0,254,90
-0.053935,0,255,90
0.045276,0,0,90
0.063087,0,1,90
-0.08011,0,2,90
-0.093737,0,3,90
-0.098236,0,4,90
-0.20714,0,5,90
-0.15885,0,6,90
-0.082245,0,7,90
0.18668,0,8,90
0.32982,0,9,90
0.79199,0,10,90
0.8873,0,11,90
0.78072,0,12,90
0.31667,0,13,90
-0.34122,0,14,90
-0.77508,0,15,90
-0.94678,0,16,90
-0.80321,0,17,90
-0.36445,0,18,90
-0.17713,0,19,90
-0.25322,0,20,90
-0.32214,0,21,90
-0.21348,0,22,90
0.099921,0,23,90
0.6736,0,24,90
0.82604,0,25,90
0.61334,0,26,90
0.20163,0,27,90
-0.19008,0,28,90
-0.40317,0,29,90
-0.31899,0,30,90
-0.017836,0,31,90
0.14831,0,32,90
0.19977,0,33,90
-0.030052,0,34,90
-0.18712,0,35,90
-0.16171,0,36,90
-0.21236,0,37,90
-0.19585,0,38,90
-0.086493,0,39,90
0.099076,0,40,90
0.43034,0,41,90
0.62024,0,42,90
0.5136,0,43,90
0.29691,0,44,90
0.083231,0,45,90
-0.11597,0,46,90
-0.1916,0,47,90
-0.20465,0,48,90
-0.077657,0,49,90
0.011356,0,50,90
0.1772,0,51,90
0.57958,0,52,90
0.65428,0,53,90
0.4745,0,54,90
0.086352,0,55,90
-0.41985,0,56,90
-0.61192,0,57,90
-0.5703,0,58,90
-0.66325,0,59,90
-0.71286,0,60,90
-0.76596,0,61,90
-0.707,0,62,90
-0.42831,0,63,90
-0.13495,0,64,90
0.24522,0,65,90
0.59528,0,66,90
0.52306,0,67,90
0.2508,0,68,90
-0.16887,0,69,90
-0.20303,0,70,90
-0.04832,0,71,90
0.10598,0,72,90
0.18459,0,73,90
0.53258,0,74,90
0.91974,0,75,90
0.93328,0,76,90
0.54017,0,77,90
0.045574,0,78,90
-0.41712,0,79,90
-0.65031,0,80,90
-0.7022,0,81,90
-0.53342,0,82,90
-0.41309,0,83,90
-0.36559,0,84,90
-0.21285,0,85,90
-0.018558,0,86,90
0.15843,0,87,90
0.25526,0,88,90
0.32679,0,89,90
0.42201,0,90,90
0.61354,0,91,90
0.77864,0,92,90
0.57285,0,93,90
0.068369,0,94,90
-0.42075,0,95,90
-0.6922,0,96,90
-0.68485,0,97,90
-0.36919,0,98,90
-0.15328,0,99,90
0.073981,0,100,90
0.090122,0,101,90
0.28855,0,102,90
0.54455,0,103,90
0.43664,0,104,90
0.20199,0,105,90
0.088469,0,106,90
-0.21243,0,107,90
-0.50742,0,108,90
-0.56334,0,109,90
-0.43161,0,110,90
-0.28252,0,111,90
-0.1826,0,112,90
-0.18863,0,113,90
0.018844,0,114,90
0.22255,0,115,90
0.35114,0,116,90
0.27376,0,117,90
0.10291,0,118,90
0.19614,0,119,90
-0.029555,0,120,90
-0.14132,0,121,90
-0.15895,0,122,90
-0.0817,0,123,90
0.064812,0,124,90
0.22223,0,125,90
0.10086,0,126,90
-0.1782,0,127,90
-0.34689,0,128,90
-0.41515,0,129,90
-0.25821,0,130,90
-0.097465,0,131,90
0.25991,0,132,90
0.60337,0,133,90
0.69938,0,134,90
0.65597,0,135,90
0.19887,0,136,90
-0.29301,0,137,90
-0.4902,0,138,90
-0.41739,0,139,90
-0.013224,0,140,90
0.3056,0,141,90
0.56181,0,142,90
0.39464,0,143,90
-0.13637,0,144,90
-0.57751,0,145,90
-0.60573,0,146,90
-0.57426,0,147,90
-0.46726,0,148,90
-0.21855,0,149,90
0.085351,0,150,90
0.15852,0,151,90
0.26743,0,152,90
0.46176,0,153,90
0.5135,0,154,90
0.40383,0,155,90
0.16442,0,156,90
0.039981,0,157,90
0.1652,0,158,90
0.3185,0,159,90
0.20418,0,160,90
0.037658,0,161,90
-0.25883,0,162,90
-0.54354,0,163,90
-0.66156,0,164,90
-0.62722,0,165,90
-0.44856,0,166,90
-0.12063,0,167,90
0.29216,0,168,90
0.41855,0,169,90
0.31735,0,170,90
0.095742,0,171,90
-0.067219,0,172,90
0.20806,0,173,90
0.63886,0,174,90
0.5577,0,175,90
0.38248,0,176,90
0.085892,0,177,90
-0.19115,0,178,90
-0.62593,0,179,90
-0.59831,0,180,90
-0.30381,0,181,90
-0.14195,0,182,90
-0.13112,0,183,90
-0.31314,0,184,90
-0.37386,0,185,90
-0.24707,0,186,90
-0.27284,0,187,90
0.063997,0,188,90
0.17901,0,189,90
0.26415,0,190,90
0.09472,0,191,90
0.16813,0,192,90
0.23976,0,193,90
0.24096,0,194,90
0.13486,0,195,90
0.087317,0,196,90
0.036463,0,197,90
-0.22571,0,198,90
-0.39528,0,199,90
-0.44153,0,200,90
0.074891,0,201,90
0.64946,0,202,90
0.63603,0,203,90
0.40538,0,204,90
0.2132,0,205,90
-0.14583,0,206,90
-0.72534,0,207,90
-0.6657,0,208,90
0.12982,0,209,90
0.55538,0,210,90
0.87519,0,211,90
0.40626,0,212,90
-0.30887,0,213,90
-0.92675,0,214,90
-0.90859,0,215,90
-0.16852,0,216,90
0.51449,0,217,90
0.61258,0,218,90
0.20829,0,219,90
-0.41849,0,220,90
-1.0852,0,221,90
-1.1417,0,222,90
-0.75877,0,223,90
-0.12588,0,224,90
1.0061,0,225,90
1.2064,0,226,90
0.79786,0,227,90
0.19253,0,228,90
0.4163,0,229,90
0.37441,0,230,90
0.037186,0,231,90
-0.19041,0,232,90
-0.54754,0,233,90
-0.54171,0,234,90
-0.23477,0,235,90
0.12593,0,236,90
0.59605,0,237,90
0.98633,0,238,90
0.74247,0,239,90
0.15414,0,240,90
-0.41862,0,241,90
-0.58429,0,242,90
-0.37989,0,243,90
0.329,0,244,90
0.95203,0,245,90
0.9268,0,246,90
0.16944,0,247,90
-0.89209,0,248,90
-1.703,0,249,90
-1.5838,0,250,90
-1.1704,0,251,90
-0.49977,0,252,90
0.26238,0,253,90
0.88477,0,254,90
0.96128,0,255,90
0.82766,0,0,90
0.72912,0,1,90
0.60486,0,2,90
0.21873,0,3,90
0.29426,0,4,90
0.45596,0,5,90
0.38191,0,6,90
0.26301,0,7,90
-0.23716,0,8,90
-0.63196,0,9,90
-1.233,0,10,90
-1.582,0,11,90
-1.6927,0,12,90
-0.99827,0,13,90
0.42019,0,14,90
1.5723,0,15,90
1.7733,0,16,90
0.8324,0,17,90
-0.46294,0,18,90
-1.3873,0,19,90
-1.5815,0,20,90
-1.0676,0,21,90
-0.10408,0,22,90
0.67139,0,23,90
1.2323,0,24,90
1.1391,0,25,90
0.7509,0,26,90
0.45014,0,27,90
-0.11612,0,28,90
-0.68154,0,29,90
-0.78163,0,30,90
-0.70749,0,31,90
-0.52652,0,32,90
0.13064,0,33,90
0.71394,0,34,90
1.1729,0,35,90
1.1125,0,36,90
0.51384,0,37,90
0.087975,0,38,90
0.19026,0,39,90
0.71327,0,40,90
0.081125,0,41,90
-0.80975,0,42,90
-1.5835,0,43,90
-2.2551,0,44,90
-1.9139,0,45,90
-1.0018,0,46,90
0.59734,0,47,90
1.4764,0,48,90
1.1361,0,49,90
0.49701,0,50,90
-0.046965,0,51,90
-0.41829,0,52,90
0.22689,0,53,90
0.56462,0,54,90
0.63959,0,55,90
0.67031,0,56,90
0.25064,0,57,90
-0.2136,0,58,90
-0.4057,0,59,90
0.037989,0,60,90
0.3848,0,61,90
0.3082,0,62,90
0.19194,0,63,90
-0.24114,0,64,90
-0.28338,0,65,90
0.32697,0,66,90
0.56279,0,67,90
0.78422,0,68,90
0.59568,0,69,90
0.34334,0,70,90
-0.079459,0,71,90
-0.17641,0,72,90
-0.77844,0,73,90
-1.2916,0,74,90
-1.1427,0,75,90
-0.93234,0,76,90
-0.11336,0,77,90
0.45602,0,78,90
0.39973,0,79,90
0.10235,0,80,90
0.3705,0,81,90
-0.052316,0,82,90
-0.1413,0,83,90
0.042378,0,84,90
-0.2105,0,85,90
-0.47269,0,86,90
-0.22533,0,87,90
0.09098,0,88,90
0.55561,0,89,90
0.41975,0,90,90
-0.088642,0,91,90
-0.13958,0,92,90
-0.37208,0,93,90
-0.76777,0,94,90
-0.13543,0,95,90
0.12157,0,96,90
0.17926,0,97,90
0.22467,0,98,90
1.0074,0,99,90
0.84008,0,100,90
1.19,0,101,90
1.0631,0,102,90
-0.35156,0,103,90
-0.76661,0,104,90
-1.509,0,105,90
-1.8022,0,106,90
-1.7787,0,107,90
-1.5224,0,108,90
-0.28503,0,109,90
0.8062,0,110,90
1.1377,0,111,90
1.0685,0,112,90
0.66621,0,113,90
0.60515,0,114,90
0.074659,0,115,90
-0.080787,0,116,90
1.6077,0,117,90
0.67396,0,118,90
-0.40843,0,119,90
-1.0534,0,120,90
-1.573,0,121,90
-1.201,0,122,90
-0.24246,0,123,90
0.39473,0,124,90
0.67355,0,125,90
1.0879,0,126,90
1.2264,0,127,90
1.4234,0,128,90
1.6262,0,129,90
1.9403,0,130,90
-0.13673,0,131,90
-1.511,0,132,90
-2.1983,0,133,90
-1.9669,0,134,90
-1.1259,0,135,90
0.27441,0,136,90
1.864,0,137,90
1.5202,0,138,90
0.85,0,139,90
-0.57949,0,140,90
-1.2987,0,141,90
-1.5302,0,142,90
-0.3515,0,143,90
0.74554,0,144,90
1.3173,0,145,90
0.7497,0,146,90
-0.60041,0,147,90
-1.7673,0,148,90
-1.9879,0,149,90
-0.72313,0,150,90
-0.26655,0,151,90
0.24146,0,152,90
0.37881,0,153,90
0.47213,0,154,90
0.35549,0,155,90
0.47812,0,156,90
0.58454,0,157,90
0.72171,0,158,90
0.93333,0,159,90
0.33354,0,160,90
0.060721,0,161,90
0.085834,0,162,90
-0.57685,0,163,90
-1.0621,0,164,90
-0.22601,0,165,90
0.02694,0,166,90
-0.29694,0,167,90
-0.6016,0,168,90
-0.30165,0,169,90
0.21284,0,170,90
0.26935,0,171,90
0.21157,0,172,90
0.26302,0,173,90
0.71771,0,174,90
0.42455,0,175,90
-0.43094,0,176,90
-1.1348,0,177,90
-0.77431,0,178,90
0.070281,0,179,90
0.68626,0,180,90
0.87809,0,181,90
0.90096,0,182,90
0.87818,0,183,90
0.52286,0,184,90
0.12125,0,185,90
-0.7243,0,186,90
-1.28,0,187,90
-1.2019,0,188,90
-0.48266,0,189,90
-0.097673,0,190,90
1.4395,0,191,90
1.5943,0,192,90
1.0107,0,193,90
-0.88691,0,194,90
-0.95016,0,195,90
-0.59098,0,196,90
-0.67301,0,197,90
-0.39081,0,198,90
-0.14359,0,199,90
0.021265,0,200,90
1.2533,0,201,90
0.78068,0,202,90
-0.048864,0,203,90
-0.73584,0,204,90
-0.11388,0,205,90
0.068667,0,206,90
-0.025903,0,207,90
0.16196,0,208,90
0.40927,0,209,90
0.028393,0,210,90
-0.65995,0,211,90
-0.4607,0,212,90
0.0691,0,213,90
0.025895,0,214,90
0.5371,0,215,90
0.21911,0,216,90
-0.4352,0,217,90
-0.35975,0,218,90
0.17508,0,219,90
-0.25629,0,220,90
-0.33668,0,221,90
-0.27451,0,222,90
-0.18688,0,223,90
-0.37193,0,224,90
-0.23417,0,225,90
0.4469,0,226,90
0.19388,0,227,90
0.5348,0,228,90
0.60707,0,229,90
0.5929,0,230,90
0.24333,0,231,90
-0.13527,0,232,90
0.06466,0,233,90
-0.18607,0,234,90
-0.44425,0,235,90
-0.60854,0,236,90
-0.10236,0,237,90
0.10974,0,238,90
0.47289,0,239,90
0.62271,0,240,90
0.28508,0,241,90
0.094626,0,242,90
-0.18285,0,243,90
-0.39698,0,244,90
-0.49872,0,245,90
-0.11576,0,246,90
0.03716,0,247,90
-0.31886,0,248,90
-0.4999,0,249,90
-0.20371,0,250,90
0.076674,0,251,90
-0.46198,0,252,90
-0.18232,0,253,90
0.35888,0,254,90
1.0344,0,255,90
0.96665,0,0,90
0.28167,0,1,90
0.22966,0,2,90
-0.13291,0,3,90
-0.54809,0,4,90
-0.74166,0,5,90
-0.37215,0,6,90
0.10984,0,7,90
0.62619,0,8,90
0.34459,0,9,90
0.11843,0,10,90
-0.31952,0,11,90
0.22861,0,12,90
0.34661,0,13,90
0.23362,0,14,90
-0.049073,0,15,90
-0.15787,0,16,90
-0.21713,0,17,90
-0.11375,0,18,90
-0.39633,0,19,90
-0.29824,0,20,90
0.28783,0,21,90
0.76465,0,22,90
-0.30866,0,23,90
-0.48227,0,24,90
-0.3429,0,25,90
-0.010992,0,26,90
-0.012888,0,27,90
0.056477,0,28,90
-0.096787,0,29,90
-0.45698,0,30,90
-0.1214,0,31,90
0.17828,0,32,90
0.63947,0,33,90
0.22252,0,34,90
0.13972,0,35,90
0.25901,0,36,90
0.46906,0,37,90
-0.58034,0,38,90
-0.56559,0,39,90
-0.42614,0,40,90
0.063887,0,41,90
0.20327,0,42,90
0.34453,0,43,90
0.15481,0,44,90
-0.07349,0,45,90
-0.16304,0,46,90
-0.082453,0,47,90
-0.16786,0,48,90
0.10944,0,49,90
0.93986,0,50,90
0.50822,0,51,90
-0.28354,0,52,90
-0.45978,0,53,90
-0.29097,0,54,90
-0.060039,0,55,90
-0.035438,0,56,90
-0.32789,0,57,90
-0.33199,0,58,90
-0.37081,0,59,90
-0.074973,0,60,90
0.12621,0,61,90
0.56372,0,62,90
0.043292,0,63,90
-0.28672,0,64,90
-0.67361,0,65,90
-0.177,0,66,90
0.28192,0,67,90
0.59741,0,68,90
0.65963,0,69,90
0.49127,0,70,90
0.36265,0,71,90
0.36122,0,72,90
-0.35588,0,73,90
-0.51926,0,74,90
-0.14202,0,75,90
-0.036351,0,76,90
0.12254,0,77,90
0.66477,0,78,90
0.56646,0,79,90
0.056533,0,80,90
-0.094653,0,81,90
-0.25443,0,82,90
-0.75861,0,83,90
-1.0058,0,84,90
-0.82042,0,85,90
0.081449,0,86,90
0.30177,0,87,90
0.42778,0,88,90
0.061213,0,89,90
0.22175,0,90,90
0.117,0,91,90
0.2147,0,92,90
-0.028151,0,93,90
0.29722,0,94,90
-0.10842,0,95,90
-0.1457,0,96,90
-0.95083,0,97,90
-0.56124,0,98,90
-0.38785,0,99,90
-0.02724,0,100,90
0.14945,0,101,90
0.5496,0,102,90
0.56068,0,103,90
0.52964,0,104,90
0.4048,0,105,90
0.11403,0,106,90
-0.49908,0,107,90
-0.39856,0,108,90
-0.23936,0,109,90
0.05703,0,110,90
0.22285,0,111,90
0.4059,0,112,90
0.66774,0,113,90
0.18599,0,114,90
-0.11993,0,115,90
-0.39952,0,116,90
-0.30428,0,117,90
-0.37606,0,118,90
0.042179,0,119,90
0.18859,0,120,90
0.27247,0,121,90
-0.337,0,122,90
-0.25847,0,123,90
0.76001,0,124,90
0.61475,0,125,90
-0.20845,0,126,90
-0.73599,0,127,90
-0.77756,0,128,90
-0.47164,0,129,90
0.18573,0,130,90
0.71685,0,131,90
0.04237,0,132,90
-0.39897,0,133,90
-0.094641,0,134,90
0.090009,0,135,90
-0.19727,0,136,90
-1.0515,0,137,90
-0.54477,0,138,90
-0.20871,0,139,90
0.54321,0,140,90
1.0849,0,141,90
1.1626,0,142,90
0.95012,0,143,90
0.23963,0,144,90
0.39967,0,145,90
-0.66427,0,146,90
-0.77995,0,147,90
-0.36949,0,148,90
0.56837,0,149,90
0.54148,0,150,90
0.069949,0,151,90
-0.2933,0,152,90
-0.26194,0,153,90
0.60488,0,154,90
0.035595,0,155,90
-0.24816,0,156,90
-0.40217,0,157,90
-0.37885,0,158,90
-0.094718,0,159,90
-0.18294,0,160,90
-0.24662,0,161,90
-0.44133,0,162,90
-0.015685,0,163,90
-0.035189,0,164,90
0.68912,0,165,90
0.6059,0,166,90
0.89613,0,167,90
-0.52702,0,168,90
-1.1875,0,169,90
-0.77571,0,170,90
0.24811,0,171,90
0.59628,0,172,90
0.77977,0,173,90
0.54891,0,174,90
-0.54989,0,175,90
-1.0296,0,176,90
-0.35137,0,177,90
0.34826,0,178,90
0.25116,0,179,90
-0.52545,0,180,90
-0.1186,0,181,90
0.12658,0,182,90
0.56334,0,183,90
0.34144,0,184,90
0.76369,0,185,90
0.44693,0,186,90
-0.25162,0,187,90
-0.34225,0,188,90
-0.063194,0,189,90
0.1392,0,190,90
0.57793,0,191,90
0.11252,0,192,90
-0.36761,0,193,90
-0.75411,0,194,90
-0.66229,0,195,90
-0.11968,0,196,90
0.23288,0,197,90
0.30112,0,198,90
-0.047956,0,199,90
-0.11537,0,200,90
-0.25396,0,201,90
-0.10847,0,202,90
-0.23153,0,203,90
-0.33139,0,204,90
-0.51262,0,205,90
-0.028723,0,206,90
0.44073,0,207,90
-0.17736,0,208,90
-0.40571,0,209,90
-0.45816,0,210,90
0.39164,0,211,90
0.2241,0,212,90
0.50483,0,213,90
0.82911,0,214,90
0.59717,0,215,90
1.016,0,216,90
0.48818,0,217,90
-0.54154,0,218,90
-0.48719,0,219,90
0.014191,0,220,90
0.2799,0,221,90
-0.25714,0,222,90
-0.65841,0,223,90
-0.63804,0,224,90
-0.66587,0,225,90
-0.82312,0,226,90
-0.43815,0,227,90
0.24757,0,228,90
1.2558,0,229,90
1.2227,0,230,90
0.45457,0,231,90
-0.37742,0,232,90
0.26122,0,233,90
0.2987,0,234,90
0.092701,0,235,90
-1.174,0,236,90
-1.1807,0,237,90
-0.6322,0,238,90
1.3115,0,239,90
0.73783,0,240,90
-0.20649,0,241,90
0.74399,0,242,90
0.51613,0,243,90
-0.01613,0,244,90
0.15804,0,245,90
-0.0443,0,246,90
-0.99309,0,247,90
-0.59228,0,248,90
-0.39298,0,249,90
0.047063,0,250,90
0.58431,0,251,90
1.8564,0,252,90
-0.11372,0,253,90
-1.3325,0,254,90
-0.32096,0,255,90
0.56315,0,0,90
0.41556,0,1,90
0.25833,0,2,90
-0.7379,0,3,90
-1.0157,0,4,90
-0.64721,0,5,90
-0.016699,0,6,90
-0.074236,0,7,90
-0.19272,0,8,90
0.10153,0,9,90
0.3258,0,10,90
-0.39649,0,11,90
-0.4804,0,12,90
-0.011583,0,13,90
0.28415,0,14,90
0.73809,0,15,90
0.74471,0,16,90
0.021385,0,17,90
-0.48658,0,18,90
-0.23288,0,19,90
0.10162,0,20,90
-0.36005,0,21,90
-0.46437,0,22,90
0.35025,0,23,90
1.0535,0,24,90
0.75852,0,25,90
0.48487,0,26,90
1.0325,0,27,90
0.03546,0,28,90
-1.2099,0,29,90
-1.4729,0,30,90
-0.5377,0,31,90
0.41425,0,32,90
1.156,0,33,90
0.18734,0,34,90
-0.70925,0,35,90
-0.24707,0,36,90
0.018411,0,37,90
-0.042232,0,38,90
0.25526,0,39,90
0.72939,0,40,90
0.38232,0,41,90
-0.72486,0,42,90
-0.64081,0,43,90
-0.14486,0,44,90
-0.099456,0,45,90
0.27692,0,46,90
0.1766,0,47,90
-0.26589,0,48,90
-0.1231,0,49,90
0.3721,0,50,90
-0.088626,0,51,90
-0.26951,0,52,90
-0.019724,0,53,90
0.24506,0,54,90
-0.11797,0,55,90
-0.58286,0,56,90
-0.36,0,57,90
0.58981,0,58,90
0.78572,0,59,90
-0.12409,0,60,90
-0.042474,0,61,90
0.55352,0,62,90
0.16924,0,63,90
-0.011555,0,64,90
0.20062,0,65,90
0.23564,0,66,90
-0.33903,0,67,90
-0.27205,0,68,90
0.015078,0,69,90
-0.20035,0,70,90
-0.64261,0,71,90
-0.3102,0,72,90
-0.090095,0,73,90
0.37291,0,74,90
0.42562,0,75,90
0.469,0,76,90
0.17671,0,77,90
-0.29921,0,78,90
-0.25803,0,79,90
-0.1697,0,80,90
0.12329,0,81,90
-0.33631,0,82,90
-0.47807,0,83,90
0.1021,0,84,90
0.25504,0,85,90
0.3021,0,86,90
0.30465,0,87,90
0.4011,0,88,90
0.25701,0,89,90
-0.22382,0,90,90
-0.52592,0,91,90
-0.25747,0,92,90
-0.43657,0,93,90
-0.14755,0,94,90
0.29154,0,95,90
0.38148,0,96,90
-0.23001,0,97,90
-0.59672,0,98,90
-0.1788,0,99,90
-0.12645,0,100,90
-0.23757,0,101,90
0.20863,0,102,90
0.6608,0,103,90
0.23536,0,104,90
0.32519,0,105,90
0.14236,0,106,90
-0.091846,0,107,90
-0.10199,0,108,90
-0.066521,0,109,90
-0.16761,0,110,90
0.013144,0,111,90
-0.36021,0,112,90
0.10807,0,113,90
0.25051,0,114,90
0.1057,0,115,90
-0.023241,0,116,90
-0.41393,0,117,90
-0.2041,0,118,90
-0.12812,0,119,90
0.046739,0,120,90
0.54573,0,121,90
0.25793,0,122,90
-0.23961,0,123,90
-0.079902,0,124,90
0.2321,0,125,90
0.06073,0,126,90
0.050974,0,127,90
-0.056595,0,128,90
-0.14893,0,129,90
0.080789,0,130,90
0.017791,0,131,90
-0.53481,0,132,90
-0.56924,0,133,90
-0.017462,0,134,90
0.16351,0,135,90
0.47488,0,136,90
0.4197,0,137,90
0.26768,0,138,90
0.066787,0,139,90
-0.08964,0,140,90
-0.086682,0,141,90
0.051328,0,142,90
0.14476,0,143,90
0.070088,0,144,90
0.15493,0,145,90
0.14678,0,146,90
0.032213,0,147,90
0.13145,0,148,90
-0.096214,0,149,90
-0.1493,0,150,90
-0.2821,0,151,90
-0.35409,0,152,90
-0.22894,0,153,90
0.092244,0,154,90
0.33282,0,155,90
-0.010865,0,156,90
-0.05073,0,157,90
0.17131,0,158,90
0.014594,0,159,90
-0.17373,0,160,90
-0.048006,0,161,90
0.10331,0,162,90
0.20727,0,163,90
0.43989,0,164,90
0.15009,0,165,90
-0.1936,0,166,90
-0.2977,0,167,90
-0.23751,0,168,90
-0.23375,0,169,90
-0.19819,0,170,90
-0.038232,0,171,90
-0.13638,0,172,90
-0.39782,0,173,90
0.063136,0,174,90
-0.083828,0,175,90
0.41073,0,176,90
0.7384,0,177,90
0.39734,0,178,90
-0.093064,0,179,90
-0.012552,0,180,90
-0.03792,0,181,90
0.078299,0,182,90
0.053269,0,183,90
-0.12627,0,184,90
-0.33199,0,185,90
-0.16583,0,186,90
-0.10079,0,187,90
-0.11371,0,188,90
0.030256,0,189,90
0.12221,0,190,90
-0.023716,0,191,90
-0.035591,0,192,90
0.084956,0,193,90
-0.31217,0,194,90
-0.4422,0,195,90
-0.22723,0,196,90
-0.024849,0,197,90
0.22491,0,198,90
0.084564,0,199,90
0.15689,0,200,90
0.69331,0,201,90
0.46963,0,202,90
-0.1153,0,203,90
-0.43199,0,204,90
-0.26605,0,205,90
-0.13472,0,206,90
0.031951,0,207,90
0.22295,0,208,90
0.18465,0,209,90
-0.057388,0,210,90
-0.40706,0,211,90
-0.12185,0,212,90
-0.22151,0,213,90
-0.077747,0,214,90
0.21978,0,215,90
0.2629,0,216,90
0.27023,0,217,90
0.25134,0,218,90
0.39786,0,219,90
0.20904,0,220,90
-0.10018,0,221,90
-0.33482,0,222,90
-0.30705,0,223,90
-0.036571,0,224,90
-0.16333,0,225,90
-0.2978,0,226,90
-0.063315,0,227,90
0.13918,0,228,90
-0.018278,0,229,90
-0.16868,0,230,90
-0.03342,0,231,90
0.053093,0,232,90
0.025564,0,233,90
-0.03119,0,234,90
-0.024233,0,235,90
-0.0629,0,236,90
0.15225,0,237,90
0.20328,0,238,90
0.050153,0,239,90
0.057431,0,240,90
0.049798,0,241,90
0.14884,0,242,90
0.1539,0,243,90
0.16982,0,244,90
-0.063642,0,245,90
-0.20628,0,246,90
-0.11174,0,247,90
-0.14961,0,248,90
0.012112,0,249,90
-0.12543,0,250,90
-0.16801,0,251,90
-0.049636,0,252,90
-0.090848,0,253,90
0.14184,0,254,90
0.27392,0,255,90
0.21867,0,0,90
0.10313,0,1,90
0.10079,0,2,90
-0.011433,0,3,90
-0.14882,0,4,90
-0.10259,0,5,90
0.050197,0,6,90
0.18592,0,7,90
-0.026748,0,8,90
-0.2262,0,9,90
-0.093073,0,10,90
0.17939,0,11,90
0.092421,0,12,90
-0.073924,0,13,90
-0.02725,0,14,90
-0.033575,0,15,90
-0.039099,0,16,90
-0.069648,0,17,90
-0.081019,0,18,90
-0.14459,0,19,90
-0.14193,0,20,90
0.15518,0,21,90
0.1809,0,22,90
0.24996,0,23,90
0.21403,0,24,90
0.11333,0,25,90
-0.055589,0,26,90
-0.083175,0,27,90
-0.12492,0,28,90
-0.13846,0,29,90
-0.030981,0,30,90
0.083649,0,31,90
-0.12648,0,32,90
-0.13648,0,33,90
-0.061713,0,34,90
0.036028,0,35,90
0.041205,0,36,90
-0.22623,0,37,90
-0.40921,0,38,90
-0.20959,0,39,90
-0.074243,0,40,90
-0.026079,0,41,90
0.018491,0,42,90
0.25625,0,43,90
0.34364,0,44,90
0.21159,0,45,90
0.13681,0,46,90
0.0383,0,47,90
0.064128,0,48,90
0.095215,0,49,90
0.20303,0,50,90
0.22462,0,51,90
-0.076893,0,52,90
-0.15491,0,53,90
-0.12423,0,54,90
0.045255,0,55,90
0.1094,0,56,90
0.073595,0,57,90
-0.011015,0,58,90
-0.11359,0,59,90
-0.031821,0,60,90
0.10369,0,61,90
-0.019901,0,62,90
-0.073363,0,63,90
-0.080909,0,64,90
-0.16517,0,65,90
-0.19662,0,66,90
-0.1484,0,67,90
-0.022419,0,68,90
-0.064074,0,69,90
-0.16461,0,70,90
-0.33415,0,71,90
0.067995,0,72,90
0.095638,0,73,90
-0.050764,0,74,90
-0.022777,0,75,90
0.14529,0,76,90
0.22309,0,77,90
0.12944,0,78,90
-0.059021,0,79,90
0.2145,0,80,90
0.062469,0,81,90
-0.079246,0,82,90
0.045549,0,83,90
0.027071,0,84,90
0.098615,0,85,90
-0.11866,0,86,90
-0.29988,0,87,90
-0.26061,0,88,90
-0.093169,0,89,90
0.08601,0,90,90
-0.044653,0,91,90
0.063844,0,92,90
0.16855,0,93,90
0.18471,0,94,90
0.019219,0,95,90
0.046783,0,96,90
0.017334,0,97,90
0.011815,0,98,90
-0.036013,0,99,90
0.0647,0,100,90
-0.062489,0,101,90
0.16393,0,102,90
0.21558,0,103,90
0.30365,0,104,90
0.32289,0,105,90
0.11007,0,106,90
-0.023911,0,107,90
0.03671,0,108,90
0.070724,0,109,90
0.10578,0,110,90
0.028899,0,111,90
0.1471,0,112,90
0.044724,0,113,90
-0.15946,0,114,90
-0.26421,0,115,90
-0.2628,0,116,90
-0.098796,0,117,90
0.055718,0,118,90
0.10664,0,119,90
0.086026,0,120,90
-0.10814,0,121,90
-0.10599,0,122,90
-0.13455,0,123,90
-0.025267,0,124,90
-0.15459,0,125,90
-0.12624,0,126,90
-0.22951,0,127,90
-0.080345,0,128,90
0.11221,0,129,90
0.059277,0,130,90
0.037521,0,131,90
0.075174,0,132,90
0.054669,0,133,90
0.033359,0,134,90
-0.032499,0,135,90
-0.10991,0,136,90
-0.21043,0,137,90
-0.11354,0,138,90
-0.027823,0,139,90
-0.156,0,140,90
-0.26391,0,141,90
-0.2704,0,142,90
-0.17144,0,143,90
0.016162,0,144,90
0.43823,0,145,90
0.29324,0,146,90
0.012165,0,147,90
-0.24601,0,148,90
-0.31558,0,149,90
-0.25744,0,150,90
-0.15298,0,151,90
0.13844,0,152,90
0.24001,0,153,90
0.28266,0,154,90
0.28644,0,155,90
0.098662,0,156,90
0.035699,0,157,90
-0.093102,0,158,90
-0.093452,0,159,90
-0.044327,0,160,90
0.040781,0,161,90
0.071249,0,162,90
0.21231,0,163,90
0.13771,0,164,90
-0.11141,0,165,90
-0.1701,0,166,90
-0.063542,0,167,90
0.07962,0,168,90
0.08548,0,169,90
-0.082506,0,170,90
-0.16317,0,171,90
-0.15728,0,172,90
-0.064499,0,173,90
-0.012432,0,174,90
0.21862,0,175,90
0.30856,0,176,90
0.18026,0,177,90
0.10316,0,178,90
-0.014635,0,179,90
-0.039768,0,180,90
0.19739,0,181,90
0.65023,0,182,90
0.12346,0,183,90
-0.49146,0,184,90
-0.69409,0,185,90
-0.50649,0,186,90
-0.15638,0,187,90
0.15205,0,188,90
0.20098,0,189,90
0.46845,0,190,90
0.28769,0,191,90
0.21508,0,192,90
0.27452,0,193,90
-0.030679,0,194,90
-0.16416,0,195,90
-0.35336,0,196,90
-0.3407,0,197,90
-0.20523,0,198,90
-0.043067,0,199,90
0.11228,0,200,90
0.29221,0,201,90
0.28907,0,202,90
0.37554,0,203,90
0.14945,0,204,90
-0.091672,0,205,90
-0.21215,0,206,90
0.19146,0,207,90
0.17418,0,208,90
-0.083668,0,209,90
-0.2401,0,210,90
-0.32785,0,211,90
-0.29584,0,212,90
0.16673,0,213,90
0.4063,0,214,90
0.26429,0,215,90
0.046231,0,216,90
-0.081282,0,217,90
-0.19804,0,218,90
-0.25517,0,219,90
-0.21808,0,220,90
0.44597,0,221,90
0.24433,0,222,90
-0.066357,0,223,90
-0.48041,0,224,90
-0.527,0,225,90
-0.46161,0,226,90
-0.22562,0,227,90
-0.11156,0,228,90
0.2179,0,229,90
0.48779,0,230,90
0.40849,0,231,90
0.15859,0,232,90
-0.11506,0,233,90
-0.2185,0,234,90
-0.028715,0,235,90
0.21733,0,236,90
0.042078,0,237,90
-0.14731,0,238,90
-0.26301,0,239,90
-0.33176,0,240,90
-0.19686,0,241,90
0.40459,0,242,90
0.40341,0,243,90
0.14933,0,244,90
0.074983,0,245,90
-0.28663,0,246,90
-0.24595,0,247,90
-0.044165,0,248,90
0.089097,0,249,90
0.15168,0,250,90
-0.026283,0,251,90
0.059767,0,252,90
-0.13386,0,253,90
-0.1748,0,254,90
0.11427,0,255,90
0.30701,0,0,90
0.19029,0,1,90
-0.13143,0,2,90
-0.44015,0,3,90
-0.2516,0,4,90
-0.2088,0,5,90
0.16313,0,6,90
0.8358,0,7,90
0.46398,0,8,90
0.31671,0,9,90
-0.2767,0,10,90
-0.73626,0,11,90
-0.44416,0,12,90
-0.088185,0,13,90
0.21443,0,14,90
0.44457,0,15,90
0.6191,0,16,90
-0.40637,0,17,90
-0.72515,0,18,90
-0.74676,0,19,90
-0.31949,0,20,90
1.0446,0,21,90
0.95265,0,22,90
0.69618,0,23,90
0.14318,0,24,90
-0.23775,0,25,90
-0.49578,0,26,90
-0.31894,0,27,90
-0.53964,0,28,90
-0.42475,0,29,90
-0.43078,0,30,90
-0.42284,0,31,90
-0.12062,0,32,90
0.01219,0,33,90
0.039814,0,34,90
0.059407,0,35,90
0.83571,0,36,90
0.80153,0,37,90
0.4326,0,38,90
-0.30291,0,39,90
-0.36243,0,40,90
-0.044286,0,41,90
0.14117,0,42,90
0.27085,0,43,90
0.43594,0,44,90
0.3244,0,45,90
0.35104,0,46,90
0.22648,0,47,90
0.035089,0,48,90
0.028108,0,49,90
-0.033938,0,50,90
0.31388,0,51,90
0.35698,0,52,90
0.21941,0,53,90
-0.43074,0,54,90
-0.87686,0,55,90
-0.92318,0,56,90
-0.72263,0,57,90
-0.30772,0,58,90
-0.020165,0,59,90
0.80766,0,60,90
0.90107,0,61,90
0.2721,0,62,90
0.48794,0,63,90
0.40038,0,64,90
-0.58926,0,65,90
-1.3189,0,66,90
-1.3569,0,67,90
-0.88957,0,68,90
-0.22841,0,69,90
0.2989,0,70,90
0.24875,0,71,90
-0.019172,0,72,90
-0.29198,0,73,90
-0.23396,0,74,90
0.95544,0,75,90
1.2561,0,76,90
0.55398,0,77,90
-0.17784,0,78,90
-0.64447,0,79,90
-0.67775,0,80,90
-0.065668,0,81,90
0.044815,0,82,90
-0.19129,0,83,90
-0.52846,0,84,90
-0.50145,0,85,90
-0.18386,0,86,90
0.40545,0,87,90
0.66987,0,88,90
0.52822,0,89,90
0.35324,0,90,90
0.43529,0,91,90
0.73516,0,92,90
0.95225,0,93,90
1.1005,0,94,90
0.26798,0,95,90
-0.71716,0,96,90
-1.1638,0,97,90
-0.74724,0,98,90
0.16607,0,99,90
0.46724,0,100,90
0.20125,0,101,90
-0.54935,0,102,90
-0.96586,0,103,90
-0.98328,0,104,90
-0.42878,0,105,90
0.43248,0,106,90
0.7284,0,107,90
0.69732,0,108,90
0.40431,0,109,90
0.47354,0,110,90
0.48533,0,111,90
0.56187,0,112,90
0.20887,0,113,90
-0.40477,0,114,90
-0.73635,0,115,90
-0.6374,0,116,90
-0.57273,0,117,90
-0.30472,0,118,90
-0.041633,0,119,90
0.063689,0,120,90
0.07389,0,121,90
0.032384,0,122,90
0.18387,0,123,90
0.23188,0,124,90
0.17013,0,125,90
0.15483,0,126,90
-0.09541,0,127,90
-0.035608,0,128,90
-0.21792,0,129,90
-0.1733,0,130,90
-0.25976,0,131,90
-0.32721,0,132,90
0.091684,0,133,90
0.62912,0,134,90
0.9359,0,135,90
0.57303,0,136,90
-0.063052,0,137,90
-0.73147,0,138,90
-0.56693,0,139,90
-0.17756,0,140,90
0.086659,0,141,90
-0.029159,0,142,90
-0.40555,0,143,90
-0.59792,0,144,90
-0.68011,0,145,90
-0.60831,0,146,90
-0.21658,0,147,90
0.21397,0,148,90
0.6374,0,149,90
1.0075,0,150,90
0.98039,0,151,90
0.53537,0,152,90
0.082667,0,153,90
-0.27107,0,154,90
-0.53359,0,155,90
-0.48896,0,156,90
-0.099865,0,157,90
0.22553,0,158,90
0.16148,0,159,90
-0.30532,0,160,90
-0.43123,0,161,90
-0.28149,0,162,90
-0.096264,0,163,90
0.22194,0,164,90
0.39588,0,165,90
0.21695,0,166,90
-0.082528,0,167,90
-0.34443,0,168,90
-0.19417,0,169,90
0.057023,0,170,90
0.19828,0,171,90
0.41494,0,172,90
0.72638,0,173,90
0.6893,0,174,90
0.30618,0,175,90
-0.15743,0,176,90
-0.48803,0,177,90
0.04849,0,178,90
0.63568,0,179,90
0.56855,0,180,90
-0.085716,0,181,90
-0.74108,0,182,90
-1.1602,0,183,90
-1.1165,0,184,90
-0.72235,0,185,90
-0.072402,0,186,90
0.56362,0,187,90
0.74128,0,188,90
0.70223,0,189,90
0.56532,0,190,90
0.29989,0,191,90
-0.13494,0,192,90
-0.56054,0,193,90
-0.56692,0,194,90
-0.54621,0,195,90
-0.42562,0,196,90
-0.30736,0,197,90
0.66486,0,198,90
0.77824,0,199,90
0.45165,0,200,90
-0.044852,0,201,90
-0.44492,0,202,90
-0.60348,0,203,90
-0.38738,0,204,90
0.042132,0,205,90
0.22175,0,206,90
0.43426,0,207,90
0.36982,0,208,90
0.28487,0,209,90
0.25901,0,210,90
0.080245,0,211,90
-0.11409,0,212,90
-0.12201,0,213,90
0.027472,0,214,90
0.066982,0,215,90
0.065145,0,216,90
0.14238,0,217,90
-0.26995,0,218,90
-0.38502,0,219,90
-0.34941,0,220,90
0.29843,0,221,90
0.46616,0,222,90
0.49708,0,223,90
0.1982,0,224,90
-0.25661,0,225,90
-0.61695,0,226,90
-0.24698,0,227,90
-0.042011,0,228,90
0.11206,0,229,90
-0.14238,0,230,90
-0.38476,0,231,90
-0.56908,0,232,90
-0.31391,0,233,90
-0.061383,0,234,90
0.71768,0,235,90
0.20562,0,236,90
-0.094376,0,237,90
-0.3081,0,238,90
-0.30864,0,239,90
0.3605,0,240,90
0.50245,0,241,90
0.54279,0,242,90
-0.10073,0,243,90
0.22727,0,244,90
0.41699,0,245,90
0.44702,0,246,90
0.21438,0,247,90
0.013424,0,248,90
-0.032477,0,249,90
-0.018815,0,250,90
-0.017913,0,251,90
-0.10117,0,252,90
-0.43351,0,253,90
-0.67617,0,254,90
-0.66866,0,255,90
-0.50105,0,0,90
-0.13487,0,1,90
0.46543,0,2,90
0.8415,0,3,90
0.78484,0,4,90
0.42374,0,5,90
-0.17201,0,6,90
-0.78903,0,7,90
-0.98593,0,8,90
-0.88195,0,9,90
-0.53084,0,10,90
-0.21909,0,11,90
0.067704,0,12,90
0.15251,0,13,90
0.7354,0,14,90
0.79301,0,15,90
0.70319,0,16,90
0.48903,0,17,90
0.062322,0,18,90
-0.42631,0,19,90
-0.62472,0,20,90
-0.62666,0,21,90
-0.2096,0,22,90
0.15955,0,23,90
0.28773,0,24,90
0.15121,0,25,90
-0.052757,0,26,90
-0.14855,0,27,90
-0.2154,0,28,90
-0.14386,0,29,90
0.092562,0,30,90
0.29548,0,31,90
0.30354,0,32,90
0.23587,0,33,90
0.10046,0,34,90
-0.058609,0,35,90
-0.11809,0,36,90
0.026189,0,37,90
0.23258,0,38,90
0.30993,0,39,90
0.24112,0,40,90
0.17098,0,41,90
0.091076,0,42,90
0.17411,0,43,90
0.055426,0,44,90
-0.30568,0,45,90
-0.60706,0,46,90
-0.73423,0,47,90
-0.64695,0,48,90
-0.39261,0,49,90
-0.037849,0,50,90
0.33303,0,51,90
0.46132,0,52,90
0.49317,0,53,90
0.43956,0,54,90
0.30655,0,55,90
0.030233,0,56,90
0.029568,0,57,90
-0.01994,0,58,90
0.020128,0,59,90
0.060048,0,60,90
0.024096,0,61,90
0.016009,0,62,90
-0.08019,0,63,90
-0.090881,0,64,90
-0.055752,0,65,90
0.14338,0,66,90
0.2435,0,67,90
0.13443,0,68,90
-0.14388,0,69,90
-0.30589,0,70,90
-0.29628,0,71,90
-0.02925,0,72,90
0.036594,0,73,90
0.049353,0,74,90
-0.1723,0,75,90
-0.3635,0,76,90
-0.1811,0,77,90
-0.10344,0,78,90
0.027933,0,79,90
0.26808,0,80,90
0.36172,0,81,90
0.31574,0,82,90
0.19197,0,83,90
0.13499,0,84,90
0.28788,0,85,90
0.12373,0,86,90
-0.27874,0,87,90
-0.36801,0,88,90
-0.46357,0,89,90
-0.38749,0,90,90
-0.015925,0,91,90
0.061412,0,92,90
-0.10569,0,93,90
-0.26955,0,94,90
-0.41817,0,95,90
-0.29887,0,96,90
-0.19597,0,97,90
0.065477,0,98,90
0.27949,0,99,90
0.41393,0,100,90
0.41713,0,101,90
0.17738,0,102,90
-0.052228,0,103,90
-0.10973,0,104,90
-0.022034,0,105,90
0.060583,0,106,90
0.29305,0,107,90
0.46552,0,108,90
0.44217,0,109,90
0.2516,0,110,90
0.13268,0,111,90
0.01511,0,112,90
-0.29044,0,113,90
-0.51957,0,114,90
-0.46019,0,115,90
-0.37855,0,116,90
-0.30001,0,117,90
-0.18234,0,118,90
-0.077795,0,119,90
-0.048926,0,120,90
0.20839,0,121,90
0.35671,0,122,90
0.25987,0,123,90
0.15252,0,124,90
0.039655,0,125,90
-0.074414,0,126,90
-0.16571,0,127,90
-0.13633,0,128,90
-0.032353,0,129,90
0.16633,0,130,90
0.33297,0,131,90
0.39868,0,132,90
0.39252,0,133,90
0.56513,0,134,90
0.53451,0,135,90
-0.44547,0,136,90
-0.80953,0,137,90
-0.88918,0,138,90
-0.71281,0,139,90
-0.34966,0,140,90
0.040769,0,141,90
0.20281,0,142,90
0.25562,0,143,90
0.18879,0,144,90
0.28122,0,145,90
0.38595,0,146,90
0.31361,0,147,90
0.062995,0,148,90
-0.17454,0,149,90
-0.30274,0,150,90
-0.24759,0,151,90
-0.04985,0,152,90
0.1265,0,153,90
0.20461,0,154,90
0.030873,0,155,90
-0.024032,0,156,90
-0.097975,0,157,90
-0.14637,0,158,90
-0.17166,0,159,90
-0.073602,0,160,90
0.18534,0,161,90
0.45753,0,162,90
0.52677,0,163,90
0.50117,0,164,90
0.20934,0,165,90
-0.2217,0,166,90
-0.59376,0,167,90
-0.69607,0,168,90
-0.48691,0,169,90
-0.13416,0,170,90
0.029333,0,171,90
0.065917,0,172,90
0.14966,0,173,90
0.1969,0,174,90
0.23678,0,175,90
0.17,0,176,90
0.13179,0,177,90
-0.12659,0,178,90
-0.20937,0,179,90
-0.10306,0,180,90
0.042126,0,181,90
0.20098,0,182,90
0.24686,0,183,90
-0.34521,0,184,90
-0.52272,0,185,90
-0.46524,0,186,90
-0.13069,0,187,90
0.26791,0,188,90
0.6133,0,189,90
0.54025,0,190,90
0.20476,0,191,90
-0.12843,0,192,90
-0.3639,0,193,90
-0.39326,0,194,90
-0.29984,0,195,90
0.27048,0,196,90
0.32915,0,197,90
0.21909,0,198,90
0.15987,0,199,90
0.034414,0,200,90
-0.01842,0,201,90
-0.15863,0,202,90
-0.18226,0,203,90
-0.18682,0,204,90
-0.019344,0,205,90
-0.013681,0,206,90
0.092394,0,207,90
0.55202,0,208,90
0.58648,0,209,90
0.26756,0,210,90
-0.10405,0,211,90
-0.41853,0,212,90
-0.57834,0,213,90
-0.56722,0,214,90
-0.29295,0,215,90
0.28584,0,216,90
0.51182,0,217,90
0.41055,0,218,90
0.1217,0,219,90
-0.085589,0,220,90
-0.29785,0,221,90
-0.3647,0,222,90
-0.16553,0,223,90
0.013506,0,224,90
0.20067,0,225,90
0.16172,0,226,90
0.12933,0,227,90
0.14271,0,228,90
0.34997,0,229,90
0.20612,0,230,90
-0.070604,0,231,90
-0.29157,0,232,90
-0.61351,0,233,90
-0.59707,0,234,90
-0.37904,0,235,90
-0.090791,0,236,90
0.32086,0,237,90
0.46369,0,238,90
0.31447,0,239,90
-0.044019,0,240,90
-0.22889,0,241,90
-0.045162,0,242,90
0.06976,0,243,90
0.016811,0,244,90
-0.080141,0,245,90
-0.1197,0,246,90
-0.20976,0,247,90
-0.084564,0,248,90
0.24395,0,249,90
0.68271,0,250,90
0.74331,0,251,90
0.34283,0,252,90
-0.20271,0,253,90
-0.63465,0,254,90
-0.694,0,255,90
-0.48976,0,0,90
-0.15816,0,1,90
0.055633,0,2,90
0.050717,0,3,90
0.07668,0,4,90
0.119,0,5,90
0.18432,0,6,90
0.22517,0,7,90
0.34057,0,8,90
0.35123,0,9,90
0.274,0,10,90
0.028629,0,11,90
-0.073589,0,12,90
-0.14437,0,13,90
-0.27352,0,14,90
-0.32893,0,15,90
-0.24689,0,16,90
-0.029434,0,17,90
0.29206,0,18,90
0.49704,0,19,90
0.48597,0,20,90
0.23018,0,21,90
-0.06552,0,22,90
-0.31462,0,23,90
-0.42713,0,24,90
-0.4315,0,25,90
-0.26506,0,26,90
-0.20454,0,27,90
-0.14029,0,28,90
0.14236,0,29,90
0.25128,0,30,90
0.22514,0,31,90
0.10644,0,32,90
-0.17121,0,33,90
-0.31196,0,34,90
-0.35467,0,35,90
-0.21565,0,36,90
0.023185,0,37,90
0.24102,0,38,90
0.37518,0,39,90
0.4775,0,40,90
0.60104,0,41,90
0.36814,0,42,90
-0.30471,0,43,90
-0.46126,0,44,90
-0.38479,0,45,90
-0.28288,0,46,90
0.15763,0,47,90
0.32264,0,48,90
0.26271,0,49,90
-0.15311,0,50,90
-0.25619,0,51,90
-0.19101,0,52,90
0.032141,0,53,90
0.1976,0,54,90
0.21344,0,55,90
0.22068,0,56,90
0.10485,0,57,90
0.05803,0,58,90
0.071256,0,59,90
-0.090071,0,60,90
-0.36573,0,61,90
-0.50434,0,62,90
-0.34109,0,63,90
-0.23284,0,64,90
-0.038354,0,65,90
0.11793,0,66,90
0.14626,0,67,90
0.077197,0,68,90
-0.045709,0,69,90
-0.092356,0,70,90
0.24787,0,71,90
0.44166,0,72,90
0.40595,0,73,90
0.19519,0,74,90
-0.10342,0,75,90
-0.39531,0,76,90
-0.42279,0,77,90
-0.22415,0,78,90
0.13417,0,79,90
0.24481,0,80,90
0.2116,0,81,90
0.13466,0,82,90
0.070871,0,83,90
-0.12132,0,84,90
-0.23583,0,85,90
-0.023832,0,86,90
0.032344,0,87,90
0.044861,0,88,90
0.020457,0,89,90
-0.11003,0,90,90
-0.16358,0,91,90
-0.071764,0,92,90
0.13587,0,93,90
0.24009,0,94,90
0.24877,0,95,90
0.080366,0,96,90
-0.17296,0,97,90
-0.29599,0,98,90
-0.27196,0,99,90
-0.063824,0,100,90
0.25636,0,101,90
0.46793,0,102,90
0.43155,0,103,90
0.10587,0,104,90
-0.15513,0,105,90
-0.26728,0,106,90
-0.25125,0,107,90
-0.19868,0,108,90
-0.046252,0,109,90
0.02169,0,110,90
0.041366,0,111,90
-0.044382,0,112,90
0.02981,0,113,90
-0.11325,0,114,90
-0.13971,0,115,90
-0.062509,0,116,90
-0.06815,0,117,90
-0.036746,0,118,90
0.17303,0,119,90
0.30227,0,120,90
0.19667,0,121,90
0.051102,0,122,90
-0.081567,0,123,90
0.17822,0,124,90
0.18379,0,125,90
0.052565,0,126,90
0.040489,0,127,90
-0.10923,0,128,90
-0.25741,0,129,90
-0.36131,0,130,90
-0.31856,0,131,90
-0.22748,0,132,90
-0.080687,0,133,90
0.095615,0,134,90
0.14086,0,135,90
0.23239,0,136,90
0.31093,0,137,90
0.35145,0,138,90
0.17424,0,139,90
0.024875,0,140,90
-0.085154,0,141,90
-0.11988,0,142,90
-0.20653,0,143,90
-0.19579,0,144,90
-0.078834,0,145,90
0.11816,0,146,90
0.20616,0,147,90
0.13014,0,148,90
-0.061221,0,149,90
-0.14379,0,150,90
-0.21952,0,151,90
-0.16682,0,152,90
-0.10844,0,153,90
-0.07452,0,154,90
-0.15218,0,155,90
-0.25459,0,156,90
-0.14635,0,157,90
-0.011743,0,158,90
0.069526,0,159,90
0.22549,0,160,90
0.29354,0,161,90
0.37677,0,162,90
0.34001,0,163,90
0.29519,0,164,90
0.10922,0,165,90
-0.18371,0,166,90
-0.30102,0,167,90
-0.21035,0,168,90
-0.080148,0,169,90
0.05588,0,170,90
0.15046,0,171,90
0.14662,0,172,90
0.030772,0,173,90
-0.16113,0,174,90
-0.11256,0,175,90
-0.1236,0,176,90
-0.16996,0,177,90
-0.25033,0,178,90
-0.1629,0,179,90
0.12106,0,180,90
0.29616,0,181,90
0.34708,0,182,90
0.29452,0,183,90
0.050181,0,184,90
-0.22352,0,185,90
-0.32973,0,186,90
-0.27133,0,187,90
-0.15049,0,188,90
0.059427,0,189,90
0.10209,0,190,90
0.20523,0,191,90
0.065569,0,192,90
0.033149,0,193,90
0.019532,0,194,90
-0.021723,0,195,90
-0.062644,0,196,90
-0.087584,0,197,90
0.021334,0,198,90
0.10176,0,199,90
0.23648,0,200,90
0.34121,0,201,90
0.32339,0,202,90
0.28417,0,203,90
0.036013,0,204,90
-0.037765,0,205,90
-0.14565,0,206,90
-0.16501,0,207,90
-0.29012,0,208,90
-0.46641,0,209,90
-0.55049,0,210,90
-0.45113,0,211,90
-0.24395,0,212,90
-0.079491,0,213,90
0.05622,0,214,90
0.12385,0,215,90
0.15461,0,216,90
0.20527,0,217,90
0.28981,0,218,90
0.34638,0,219,90
0.31316,0,220,90
0.35381,0,221,90
0.41297,0,222,90
0.34773,0,223,90
-0.023324,0,224,90
-0.33566,0,225,90
-0.60345,0,226,90
-0.76451,0,227,90
-0.53347,0,228,90
0.059048,0,229,90
0.51861,0,230,90
0.59976,0,231,90
0.37829,0,232,90
0.042886,0,233,90
-0.29353,0,234,90
-0.50253,0,235,90
-0.47145,0,236,90
-0.198,0,237,90
0.044279,0,238,90
0.25878,0,239,90
0.26874,0,240,90
0.18358,0,241,90
0.18491,0,242,90
0.23401,0,243,90
0.19822,0,244,90
0.10938,0,245,90
-0.11235,0,246,90
-0.31616,0,247,90
-0.40629,0,248,90
-0.23553,0,249,90
0.060159,0,250,90
0.16604,0,251,90
0.13212,0,252,90
-0.014657,0,253,90
-0.052708,0,254,90
0.070011,0,255,90
0.24459,0,0,90
0.11959,0,1,90
-0.17659,0,2,90
-0.26704,0,3,90
-0.2385,0,4,90
-0.078028,0,5,90
0.015171,0,6,90
0.18847,0,7,90
0.12544,0,8,90
-0.025939,0,9,90
-0.056648,0,10,90
0.047966,0,11,90
0.21558,0,12,90
0.32605,0,13,90
0.33806,0,14,90
0.11916,0,15,90
-0.18487,0,16,90
-0.36722,0,17,90
-0.43399,0,18,90
-0.32208,0,19,90
-0.088392,0,20,90
0.25047,0,21,90
0.43414,0,22,90
0.39333,0,23,90
0.16534,0,24,90
-0.093304,0,25,90
-0.31536,0,26,90
-0.35587,0,27,90
-0.27399,0,28,90
-0.065803,0,29,90
0.043436,0,30,90
0.057282,0,31,90
0.050718,0,32,90
-0.071373,0,33,90
-0.16014,0,34,90
-0.072574,0,35,90
0.017338,0,36,90
0.099679,0,37,90
0.16321,0,38,90
0.10755,0,39,90
-0.034464,0,40,90
-0.13268,0,41,90
-0.23829,0,42,90
-0.25793,0,43,90
-0.055502,0,44,90
0.29352,0,45,90
0.42144,0,46,90
0.45171,0,47,90
0.17735,0,48,90
-0.1294,0,49,90
-0.063839,0,50,90
0.081933,0,51,90
-0.019367,0,52,90
0.028191,0,53,90
-0.042231,0,54,90
-0.025865,0,55,90
-0.04361,0,56,90
-0.18695,0,57,90
-0.37088,0,58,90
-0.40686,0,59,90
-0.071362,0,60,90
0.21202,0,61,90
0.36591,0,62,90
0.26127,0,63,90
0.08464,0,64,90
-0.11055,0,65,90
-0.24309,0,66,90
-0.19158,0,67,90
-0.081052,0,68,90
0.14185,0,69,90
0.34876,0,70,90
0.26307,0,71,90
0.071915,0,72,90
-0.066018,0,73,90
-0.049053,0,74,90
-0.075087,0,75,90
-0.036962,0,76,90
0.018979,0,77,90
0.049154,0,78,90
-0.057423,0,79,90
-0.16416,0,80,90
0.16356,0,81,90
0.40413,0,82,90
0.46353,0,83,90
-0.012965,0,84,90
-0.43884,0,85,90
-0.62702,0,86,90
-0.68245,0,87,90
-0.31698,0,88,90
0.60608,0,89,90
1.0784,0,90,90
0.913,0,91,90
0.22787,0,92,90
-0.39138,0,93,90
-0.8224,0,94,90
-1.0868,0,95,90
-1.0205,0,96,90
-0.54707,0,97,90
-0.13944,0,98,90
0.12168,0,99,90
0.35521,0,100,90
0.52839,0,101,90
0.4528,0,102,90
0.27613,0,103,90
0.19039,0,104,90
0.18474,0,105,90
0.24472,0,106,90
0.37304,0,107,90
0.42437,0,108,90
0.23714,0,109,90
0.088237,0,110,90
-0.16909,0,111,90
-0.22854,0,112,90
-0.11819,0,113,90
0.030716,0,114,90
-0.04844,0,115,90
-0.26955,0,116,90
-0.44804,0,117,90
-0.38088,0,118,90
-0.073013,0,119,90
0.25974,0,120,90
0.50238,0,121,90
0.39164,0,122,90
0.13483,0,123,90
-0.14135,0,124,90
-0.11615,0,125,90
-0.021551,0,126,90
-0.059928,0,127,90
-0.25188,0,128,90
-0.31517,0,129,90
-0.32738,0,130,90
-0.28375,0,131,90
0.32408,0,132,90
0.34652,0,133,90
0.21756,0,134,90
0.012635,0,135,90
-0.23276,0,136,90
-0.25722,0,137,90
-0.1588,0,138,90
0.053802,0,139,90
0.24172,0,140,90
0.21588,0,141,90
0.034562,0,142,90
-0.16659,0,143,90
-0.2668,0,144,90
-0.21214,0,145,90
-0.011139,0,146,90
0.25028,0,147,90
0.34205,0,148,90
0.10062,0,149,90
-0.094602,0,150,90
0.10352,0,151,90
0.16756,0,152,90
0.061349,0,153,90
-0.16338,0,154,90
-0.24939,0,155,90
-0.41407,0,156,90
-0.46838,0,157,90
-0.24986,0,158,90
0.093001,0,159,90
0.32499,0,160,90
0.45875,0,161,90
0.40001,0,162,90
0.2263,0,163,90
0.011713,0,164,90
-0.15771,0,165,90
-0.13468,0,166,90
-0.033032,0,167,90
-0.09338,0,168,90
-0.10573,0,169,90
-0.20246,0,170,90
-0.078417,0,171,90
-0.059441,0,172,90
0.15212,0,173,90
0.26904,0,174,90
0.28903,0,175,90
0.086765,0,176,90
-0.10994,0,177,90
-0.15414,0,178,90
-0.14535,0,179,90
-0.10184,0,180,90
0.12868,0,181,90
0.15034,0,182,90
0.093834,0,183,90
0.10054,0,184,90
0.26166,0,185,90
0.39446,0,186,90
0.37603,0,187,90
-0.025922,0,188,90
-0.38921,0,189,90
-0.65816,0,190,90
-0.68087,0,191,90
-0.47382,0,192,90
-0.053244,0,193,90
0.37208,0,194,90
0.56166,0,195,90
0.45211,0,196,90
0.058285,0,197,90
-0.31029,0,198,90
-0.40293,0,199,90
-0.23046,0,200,90
0.08268,0,201,90
0.19033,0,202,90
0.090028,0,203,90
-0.030177,0,204,90
-0.049152,0,205,90
0.12904,0,206,90
0.24965,0,207,90
0.18381,0,208,90
-0.04574,0,209,90
-0.23354,0,210,90
-0.33188,0,211,90
-0.28157,0,212,90
-0.12483,0,213,90
0.25928,0,214,90
0.61168,0,215,90
0.67876,0,216,90
0.20995,0,217,90
-0.27281,0,218,90
-0.50632,0,219,90
-0.45955,0,220,90
-0.10072,0,221,90
0.1854,0,222,90
0.28297,0,223,90
0.20893,0,224,90
0.10776,0,225,90
0.04103,0,226,90
0.047659,0,227,90
0.056894,0,228,90
-0.066675,0,229,90
-0.097081,0,230,90
-0.21721,0,231,90
-0.29576,0,232,90
-0.14438,0,233,90
0.16629,0,234,90
0.29067,0,235,90
0.086324,0,236,90
-0.18298,0,237,90
-0.39435,0,238,90
-0.44445,0,239,90
-0.32729,0,240,90
-0.10173,0,241,90
0.27272,0,242,90
0.32007,0,243,90
0.26677,0,244,90
0.13605,0,245,90
0.15708,0,246,90
0.21074,0,247,90
0.21314,0,248,90
0.20851,0,249,90
0.028841,0,250,90
0.11841,0,251,90
0.068903,0,252,90
-0.06651,0,253,90
-0.31802,0,254,90
-0.50426,0,255,90
-0.57098,0,0,90
-0.49592,0,1,90
-0.19835,0,2,90
0.063303,0,3,90
0.26449,0,4,90
0.40255,0,5,90
0.28869,0,6,90
0.069785,0,7,90
-0.032368,0,8,90
-0.075884,0,9,90
-0.064242,0,10,90
0.038989,0,11,90
0.061004,0,12,90
0.099831,0,13,90
0.10264,0,14,90
0.026046,0,15,90
0.074172,0,16,90
0.077267,0,17,90
0.024587,0,18,90
-0.15628,0,19,90
-0.21183,0,20,90
-0.19606,0,21,90
-0.09757,0,22,90
0.061259,0,23,90
0.17949,0,24,90
0.3595,0,25,90
0.53628,0,26,90
0.47768,0,27,90
0.1657,0,28,90
-0.2288,0,29,90
-0.6194,0,30,90
-0.71737,0,31,90
-0.55918,0,32,90
-0.20418,0,33,90
0.17433,0,34,90
0.33101,0,35,90
0.46087,0,36,90
0.36886,0,37,90
0.22068,0,38,90
-0.10821,0,39,90
-0.25134,0,40,90
-0.32106,0,41,90
-0.2299,0,42,90
-0.16161,0,43,90
0.072417,0,44,90
0.39963,0,45,90
0.50052,0,46,90
0.17175,0,47,90
-0.24928,0,48,90
-0.52243,0,49,90
-0.66978,0,50,90
-0.55689,0,51,90
-0.086632,0,52,90
0.40287,0,53,90
0.54476,0,54,90
0.45317,0,55,90
0.18378,0,56,90
-0.034823,0,57,90
-0.13992,0,58,90
-0.087421,0,59,90
0.10049,0,60,90
0.26748,0,61,90
0.34224,0,62,90
0.27423,0,63,90
-0.026227,0,64,90
-0.25286,0,65,90
-0.1905,0,66,90
-0.060558,0,67,90
0.15456,0,68,90
0.26238,0,69,90
0.16967,0,70,90
-0.17389,0,71,90
-0.4028,0,72,90
-0.39499,0,73,90
-0.18164,0,74,90
0.079143,0,75,90
0.35051,0,76,90
0.42711,0,77,90
0.23412,0,78,90
0.042805,0,79,90
-0.11403,0,80,90
-0.41846,0,81,90
-0.40061,0,82,90
-0.23886,0,83,90
0.059718,0,84,90
0.076242,0,85,90
0.083412,0,86,90
-0.05837,0,87,90
-0.25424,0,88,90
-0.2194,0,89,90
0.018691,0,90,90
0.136,0,91,90
0.10539,0,92,90
0.213,0,93,90
0.29962,0,94,90
0.14637,0,95,90
-0.07852,0,96,90
-0.2794,0,97,90
-0.3755,0,98,90
-0.45998,0,99,90
-0.26655,0,100,90
0.18671,0,101,90
0.67355,0,102,90
0.59766,0,103,90
0.2697,0,104,90
-0.12906,0,105,90
-0.45979,0,106,90
-0.42155,0,107,90
-0.19205,0,108,90
0.18648,0,109,90
0.25209,0,110,90
0.20161,0,111,90
-0.091708,0,112,90
-0.060634,0,113,90
-0.072409,0,114,90
0.11583,0,115,90
0.35462,0,116,90
0.28474,0,117,90
0.090821,0,118,90
-0.032736,0,119,90
-0.27699,0,120,90
-0.32906,0,121,90
-0.23509,0,122,90
0.042379,0,123,90
0.32589,0,124,90
0.36734,0,125,90
0.2429,0,126,90
-0.063182,0,127,90
-0.28251,0,128,90
-0.34036,0,129,90
-0.35337,0,130,90
-0.32374,0,131,90
-0.27347,0,132,90
-0.095733,0,133,90
0.15967,0,134,90
0.41868,0,135,90
0.5875,0,136,90
0.43306,0,137,90
0.21059,0,138,90
-0.052343,0,139,90
-0.043462,0,140,90
0.11194,0,141,90
0.17149,0,142,90
-0.23544,0,143,90
-0.48949,0,144,90
-0.4328,0,145,90
-0.39363,0,146,90
-0.25981,0,147,90
-0.13496,0,148,90
0.013454,0,149,90
0.039071,0,150,90
0.092013,0,151,90
0.24765,0,152,90
0.27709,0,153,90
0.12331,0,154,90
-0.056818,0,155,90
0.25922,0,156,90
0.52989,0,157,90
0.78571,0,158,90
0.25969,0,159,90
-0.29633,0,160,90
-0.68506,0,161,90
-1.0413,0,162,90
-0.72715,0,163,90
-0.21504,0,164,90
0.086437,0,165,90
0.17081,0,166,90
-0.016349,0,167,90
-0.012401,0,168,90
-0.058887,0,169,90
0.24972,0,170,90
0.41268,0,171,90
0.56885,0,172,90
0.44185,0,173,90
0.054597,0,174,90
-0.27988,0,175,90
-0.34629,0,176,90
-0.36213,0,177,90
0.35064,0,178,90
0.40073,0,179,90
0.29939,0,180,90
0.21119,0,181,90
0.095961,0,182,90
-0.17595,0,183,90
-0.28759,0,184,90
-0.090281,0,185,90
0.19396,0,186,90
0.071075,0,187,90
-0.15252,0,188,90
-0.36737,0,189,90
-0.45996,0,190,90
-0.35609,0,191,90
-0.036259,0,192,90
0.4142,0,193,90
0.50629,0,194,90
0.40625,0,195,90
0.40149,0,196,90
0.49301,0,197,90
0.307,0,198,90
-0.073018,0,199,90
-0.42567,0,200,90
-0.62637,0,201,90
-0.88486,0,202,90
-0.63021,0,203,90
-0.24455,0,204,90
0.51468,0,205,90
0.79062,0,206,90
0.5256,0,207,90
-0.12333,0,208,90
-0.63968,0,209,90
-1.0238,0,210,90
-0.91902,0,211,90
-0.11762,0,212,90
0.55072,0,213,90
0.72906,0,214,90
0.49188,0,215,90
0.73631,0,216,90
0.54894,0,217,90
0.064057,0,218,90
-0.65886,0,219,90
-0.88101,0,220,90
-1.0176,0,221,90
-0.67326,0,222,90
0.28551,0,223,90
1.1973,0,224,90
1.2586,0,225,90
0.59138,0,226,90
-0.15788,0,227,90
-0.78577,0,228,90
-1.043,0,229,90
-0.70887,0,230,90
-0.21725,0,231,90
0.34663,0,232,90
0.62968,0,233,90
0.75578,0,234,90
0.61329,0,235,90
0.45651,0,236,90
0.42639,0,237,90
0.29904,0,238,90
0.17193,0,239,90
-0.18676,0,240,90
-0.49628,0,241,90
-0.76723,0,242,90
-0.68778,0,243,90
-0.25647,0,244,90
0.6182,0,245,90
1.1307,0,246,90
1.0354,0,247,90
0.48956,0,248,90
-0.078654,0,249,90
-0.39778,0,250,90
-0.53077,0,251,90
-0.55068,0,252,90
-0.65972,0,253,90
-0.61932,0,254,90
-0.45018,0,255,90
-0.38732,0,0,90
-0.39708,0,1,90
-0.4544,0,2,90
-0.31635,0,3,90
-0.10908,0,4,90
0.027555,0,5,90
0.3581,0,6,90
0.48174,0,7,90
0.43884,0,8,90
0.028027,0,9,90
-0.47403,0,10,90
-0.72734,0,11,90
-0.5773,0,12,90
-0.26888,0,13,90
0.41223,0,14,90
0.8701,0,15,90
0.96795,0,16,90
0.89408,0,17,90
0.56553,0,18,90
0.28063,0,19,90
0.4126,0,20,90
0.30887,0,21,90
-0.017099,0,22,90
-0.44471,0,23,90
-0.83533,0,24,90
-1.106,0,25,90
-0.98346,0,26,90
-0.64362,0,27,90
-0.2305,0,28,90
0.1561,0,29,90
0.72628,0,30,90
1.1611,0,31,90
1.1347,0,32,90
0.91686,0,33,90
0.83569,0,34,90
0.2424,0,35,90
-0.20302,0,36,90
-0.090832,0,37,90
-0.29647,0,38,90
-0.68912,0,39,90
-1.0256,0,40,90
-0.99697,0,41,90
-0.69443,0,42,90
-0.59527,0,43,90
-0.091104,0,44,90
0.32209,0,45,90
0.57291,0,46,90
0.56939,0,47,90
0.5206,0,48,90
0.39645,0,49,90
0.25276,0,50,90
0.74239,0,51,90
0.61409,0,52,90
0.39877,0,53,90
-0.36604,0,54,90
-1.0214,0,55,90
-1.4777,0,56,90
-1.2236,0,57,90
-0.97934,0,58,90
-0.39512,0,59,90
0.7451,0,60,90
1.7079,0,61,90
1.8608,0,62,90
1.6622,0,63,90
0.27908,0,64,90
-1.5108,0,65,90
-2.3964,0,66,90
-2.3788,0,67,90
-1.4143,0,68,90
-0.20018,0,69,90
0.83182,0,70,90
2.0026,0,71,90
1.5653,0,72,90
1.2786,0,73,90
0.59781,0,74,90
-0.061701,0,75,90
0.41216,0,76,90
0.014831,0,77,90
-0.35136,0,78,90
-0.85676,0,79,90
-1.1738,0,80,90
-0.7923,0,81,90
-0.60071,0,82,90
0.2836,0,83,90
0.99284,0,84,90
0.60025,0,85,90
0.15417,0,86,90
-0.31516,0,87,90
-0.36754,0,88,90
0.99518,0,89,90
1.9708,0,90,90
0.85935,0,91,90
0.032667,0,92,90
-0.84027,0,93,90
-1.5353,0,94,90
-1.4944,0,95,90
-0.96318,0,96,90
0.47553,0,97,90
1.6988,0,98,90
0.89946,0,99,90
-0.063439,0,100,90
-0.84336,0,101,90
-0.84768,0,102,90
-1.0655,0,103,90
-0.15206,0,104,90
0.084038,0,105,90
-0.30228,0,106,90
0.21815,0,107,90
1.7717,0,108,90
0.64887,0,109,90
-0.43623,0,110,90
-0.84717,0,111,90
-0.83372,0,112,90
-0.90819,0,113,90
-0.42385,0,114,90
0.61205,0,115,90
0.6766,0,116,90
0.45681,0,117,90
1.1785,0,118,90
0.37153,0,119,90
-0.41822,0,120,90
0.19912,0,121,90
-0.32164,0,122,90
-0.69856,0,123,90
-0.69396,0,124,90
-0.34645,0,125,90
-0.20856,0,126,90
-0.14648,0,127,90
-0.16434,0,128,90
-0.016027,0,129,90
-0.16166,0,130,90
0.19233,0,131,90
1.1962,0,132,90
1.393,0,133,90
0.59698,0,134,90
0.49006,0,135,90
0.68777,0,136,90
-0.38576,0,137,90
-0.89917,0,138,90
-0.46175,0,139,90
-0.36422,0,140,90
-0.51983,0,141,90
-0.14461,0,142,90
-0.16249,0,143,90
-0.32322,0,144,90
0.72302,0,145,90
0.34708,0,146,90
0.39931,0,147,90
0.35738,0,148,90
0.48332,0,149,90
0.44335,0,150,90
0.18523,0,151,90
-0.04819,0,152,90
-0.24797,0,153,90
-1.0865,0,154,90
-0.68311,0,155,90
-0.56102,0,156,90
-0.9928,0,157,90
-0.94516,0,158,90
-0.29864,0,159,90
0.14705,0,160,90
2.9961,0,161,90
1.4735,0,162,90
-0.25132,0,163,90
-1.6718,0,164,90
-1.7288,0,165,90
-0.90133,0,166,90
0.12595,0,167,90
1.3052,0,168,90
0.73108,0,169,90
0.16025,0,170,90
0.032663,0,171,90
-0.2326,0,172,90
0.41411,0,173,90
0.22264,0,174,90
0.39428,0,175,90
-0.11188,0,176,90
-0.22005,0,177,90
-0.23995,0,178,90
-0.40095,0,179,90
0.046236,0,180,90
-0.2608,0,181,90
-0.17314,0,182,90
-0.024338,0,183,90
0.36312,0,184,90
0.14964,0,185,90
0.14845,0,186,90
0.055399,0,187,90
-0.15368,0,188,90
-0.11249,0,189,90
-0.17059,0,190,90
0.43603,0,191,90
0.55235,0,192,90
0.41615,0,193,90
-0.30862,0,194,90
-0.058908,0,195,90
-0.044274,0,196,90
-0.12682,0,197,90
0.31708,0,198,90
0.52132,0,199,90
0.096285,0,200,90
-0.43957,0,201,90
-0.5831,0,202,90
-0.58788,0,203,90
-0.11181,0,204,90
0.27087,0,205,90
0.020295,0,206,90
-0.21354,0,207,90
0.031662,0,208,90
0.057012,0,209,90
-0.23985,0,210,90
0.18964,0,211,90
0.36985,0,212,90
0.017605,0,213,90
-0.10685,0,214,90
0.20667,0,215,90
-0.057224,0,216,90
0.20345,0,217,90
0.2466,0,218,90
-0.057768,0,219,90
-0.16237,0,220,90
-0.43685,0,221,90
-0.47729,0,222,90
-0.23353,0,223,90
0.084086,0,224,90
-0.020574,0,225,90
0.039957,0,226,90
0.48493,0,227,90
0.56581,0,228,90
-0.015763,0,229,90
-0.29402,0,230,90
-0.23509,0,231,90
0.32918,0,232,90
0.54701,0,233,90
-0.01539,0,234,90
-0.84875,0,235,90
-0.81593,0,236,90
-0.54358,0,237,90
-0.18141,0,238,90
0.74009,0,239,90
0.8315,0,240,90
0.15683,0,241,90
-0.077313,0,242,90
-0.16218,0,243,90
0.19676,0,244,90
0.44914,0,245,90
0.64796,0,246,90
-0.026571,0,247,90
-0.43053,0,248,90
-0.58723,0,249,90
-0.51922,0,250,90
0.55001,0,251,90
0.46066,0,252,90
0.030027,0,253,90
0.085911,0,254,90
-0.13853,0,255,90
0.06564,0,0,90
0.069667,0,1,90
-0.068829,0,2,90
0.013716,0,3,90
-0.21456,0,4,90
-0.29836,0,5,90
-0.042418,0,6,90
-0.039055,0,7,90
-0.19938,0,8,90
-0.21825,0,9,90
0.23494,0,10,90
0.48152,0,11,90
0.73577,0,12,90
0.40094,0,13,90
-0.26642,0,14,90
-0.46597,0,15,90
-0.42871,0,16,90
-0.12221,0,17,90
-0.22059,0,18,90
-0.04758,0,19,90
0.10947,0,20,90
0.010015,0,21,90
0.088577,0,22,90
0.26582,0,23,90
-0.057581,0,24,90
-0.27124,0,25,90
-0.3908,0,26,90
-0.068886,0,27,90
-0.023213,0,28,90
-0.039312,0,29,90
-0.047764,0,30,90
0.096581,0,31,90
0.16921,0,32,90
0.21137,0,33,90
-0.021762,0,34,90
-0.30482,0,35,90
0.071288,0,36,90
0.048895,0,37,90
0.02942,0,38,90
0.030975,0,39,90
-0.16597,0,40,90
-0.25586,0,41,90
0.11381,0,42,90
0.53144,0,43,90
0.33271,0,44,90
0.1527,0,45,90
-0.20062,0,46,90
-0.32372,0,47,90
-0.74887,0,48,90
-0.40599,0,49,90
0.070697,0,50,90
0.079561,0,51,90
0.51878,0,52,90
0.35796,0,53,90
-0.053729,0,54,90
-0.099727,0,55,90
0.3084,0,56,90
0.4876,0,57,90
0.33712,0,58,90
-0.16941,0,59,90
-0.44844,0,60,90
-0.85049,0,61,90
-0.68937,0,62,90
-0.18306,0,63,90
-0.17482,0,64,90
0.57695,0,65,90
0.92321,0,66,90
1.3067,0,67,90
1.0819,0,68,90
0.57069,0,69,90
-0.30334,0,70,90
-0.98328,0,71,90
-0.89579,0,72,90
-0.39112,0,73,90
-0.96001,0,74,90
-1.0174,0,75,90
0.098296,0,76,90
0.77573,0,77,90
0.78622,0,78,90
0.77693,0,79,90
0.22733,0,80,90
-0.16773,0,81,90
-0.53917,0,82,90
-0.46956,0,83,90
0.39403,0,84,90
0.86839,0,85,90
0.090729,0,86,90
-0.33623,0,87,90
-0.1821,0,88,90
0.1403,0,89,90
-0.27074,0,90,90
-0.068542,0,91,90
-0.092787,0,92,90
-0.21866,0,93,90
-0.11532,0,94,90
-0.043673,0,95,90
-0.052338,0,96,90
-0.32564,0,97,90
-0.54267,0,98,90
-0.23156,0,99,90
0.41667,0,100,90
0.84481,0,101,90
0.37905,0,102,90
-0.058618,0,103,90
-0.41714,0,104,90
-0.12772,0,105,90
0.048661,0,106,90
0.19858,0,107,90
0.2036,0,108,90
0.13187,0,109,90
-0.26377,0,110,90
-0.57408,0,111,90
-0.19028,0,112,90
0.11377,0,113,90
0.32674,0,114,90
0.27828,0,115,90
0.31944,0,116,90
0.82605,0,117,90
0.19922,0,118,90
-0.34613,0,119,90
-0.55593,0,120,90
-0.54425,0,121,90
-0.15911,0,122,90
-0.091244,0,123,90
-0.66426,0,124,90
-0.37595,0,125,90
0.29212,0,126,90
0.51561,0,127,90
0.84836,0,128,90
0.18296,0,129,90
-0.17219,0,130,90
-0.2399,0,131,90
-0.40676,0,132,90
0.44394,0,133,90
0.44286,0,134,90
0.10744,0,135,90
-0.091062,0,136,90
-0.10755,0,137,90
-0.21328,0,138,90
-0.14947,0,139,90
0.33743,0,140,90
0.84743,0,141,90
-0.10037,0,142,90
-0.98994,0,143,90
-0.51288,0,144,90
0.053281,0,145,90
-0.28187,0,146,90
-0.6445,0,147,90
-0.41587,0,148,90
0.25107,0,149,90
0.59901,0,150,90
0.67259,0,151,90
0.68017,0,152,90
0.67059,0,153,90
0.91718,0,154,90
-0.028026,0,155,90
-1.1178,0,156,90
-0.97391,0,157,90
-0.77143,0,158,90
0.14486,0,159,90
-0.1742,0,160,90
-0.13592,0,161,90
0.53528,0,162,90
0.50979,0,163,90
0.034648,0,164,90
-0.50451,0,165,90
-0.35815,0,166,90
0.012498,0,167,90
1.2813,0,168,90
0.46891,0,169,90
-0.27603,0,170,90
-0.53047,0,171,90
-0.33187,0,172,90
-0.16764,0,173,90
-0.28904,0,174,90
-0.21947,0,175,90
0.39208,0,176,90
1.4198,0,177,90
0.86079,0,178,90
-0.27088,0,179,90
-0.25003,0,180,90
-0.11184,0,181,90
-0.823,0,182,90
-0.84484,0,183,90
0.92958,0,184,90
0.72146,0,185,90
-1.0106,0,186,90
-1.3737,0,187,90
-0.81423,0,188,90
-0.27524,0,189,90
-0.068519,0,190,90
0.68964,0,191,90
0.80831,0,192,90
1.3673,0,193,90
0.88446,0,194,90
-0.60345,0,195,90
-1.3842,0,196,90
-0.37408,0,197,90
0.50334,0,198,90
0.64648,0,199,90
0.071069,0,200,90
-0.26426,0,201,90
0.12938,0,202,90
-0.17453,0,203,90
-0.10557,0,204,90
-0.38268,0,205,90
-0.30008,0,206,90
0.46052,0,207,90
1.014,0,208,90
0.33025,0,209,90
-0.45179,0,210,90
-0.76641,0,211,90
-0.33405,0,212,90
-0.060211,0,213,90
-0.21554,0,214,90
-0.23563,0,215,90
0.79212,0,216,90
0.14766,0,217,90
-0.82477,0,218,90
-0.50967,0,219,90
0.89419,0,220,90
1.2362,0,221,90
0.13005,0,222,90
-0.63539,0,223,90
-0.38324,0,224,90
0.18087,0,225,90
0.25295,0,226,90
0.34435,0,227,90
0.97909,0,228,90
0.24645,0,229,90
-0.81685,0,230,90
-0.69075,0,231,90
-0.5736,0,232,90
-0.20359,0,233,90
-0.35484,0,234,90
0.99192,0,235,90
0.86115,0,236,90
0.42539,0,237,90
-0.35866,0,238,90
-0.35795,0,239,90
-0.38058,0,240,90
-0.046611,0,241,90
-0.17599,0,242,90
-0.094954,0,243,90
-0.37895,0,244,90
-0.14899,0,245,90
-0.041747,0,246,90
-0.063385,0,247,90
0.016101,0,248,90
0.15636,0,249,90
0.19635,0,250,90
0.050029,0,251,90
0.28229,0,252,90
0.20424,0,253,90
0.42875,0,254,90
-0.36497,0,255,90
-0.15408,0,0,90
0.34368,0,1,90
0.3396,0,2,90
-0.41068,0,3,90
-1.0038,0,4,90
-0.82361,0,5,90
0.31671,0,6,90
0.40219,0,7,90
-0.023081,0,8,90
-0.30018,0,9,90
-0.24275,0,10,90
0.082902,0,11,90
0.55852,0,12,90
0.47269,0,13,90
0.32325,0,14,90
0.53958,0,15,90
-0.34053,0,16,90
-0.65858,0,17,90
-0.35199,0,18,90
0.10851,0,19,90
0.55339,0,20,90
0.0867,0,21,90
0.025965,0,22,90
-0.20601,0,23,90
-0.67588,0,24,90
-0.44083,0,25,90
0.10696,0,26,90
0.30598,0,27,90
0.37313,0,28,90
0.33466,0,29,90
0.1313,0,30,90
0.48538,0,31,90
0.13481,0,32,90
0.053995,0,33,90
0.14437,0,34,90
-0.28625,0,35,90
-0.34699,0,36,90
0.054037,0,37,90
0.097268,0,38,90
0.065465,0,39,90
-0.18773,0,40,90
-0.68101,0,41,90
-0.41537,0,42,90
-0.041545,0,43,90
0.2405,0,44,90
0.41037,0,45,90
0.22295,0,46,90
0.030917,0,47,90
-0.21507,0,48,90
-0.11883,0,49,90
-0.014738,0,50,90
0.10397,0,51,90
-0.039558,0,52,90
-0.12751,0,53,90
0.23646,0,54,90
0.25457,0,55,90
-0.12143,0,56,90
-0.23763,0,57,90
0.10911,0,58,90
0.077662,0,59,90
0.08208,0,60,90
0.13135,0,61,90
0.25559,0,62,90
-0.10099,0,63,90
-0.35817,0,64,90
-0.12842,0,65,90
-0.030638,0,66,90
-0.037832,0,67,90
-0.16147,0,68,90
0.39756,0,69,90
0.17816,0,70,90
-0.22869,0,71,90
-0.30248,0,72,90
-0.083655,0,73,90
0.23323,0,74,90
-0.022096,0,75,90
-0.12612,0,76,90
-0.089231,0,77,90
0.20532,0,78,90
0.41898,0,79,90
0.33861,0,80,90
-0.22861,0,81,90
-0.61516,0,82,90
-0.1809,0,83,90
-0.012142,0,84,90
0.034819,0,85,90
0.029646,0,86,90
0.12782,0,87,90
-0.060499,0,88,90
-0.038256,0,89,90
0.23078,0,90,90
-0.2502,0,91,90
-0.35471,0,92,90
0.20731,0,93,90
0.39212,0,94,90
0.28348,0,95,90
0.062155,0,96,90
0.12095,0,97,90
-0.29132,0,98,90
-0.38388,0,99,90
-0.21605,0,100,90
0.12539,0,101,90
0.33224,0,102,90
0.41793,0,103,90
0.20171,0,104,90
0.19355,0,105,90
-0.31266,0,106,90
-0.38804,0,107,90
-0.24314,0,108,90
-0.037349,0,109,90
0.39311,0,110,90
0.23039,0,111,90
-0.11403,0,112,90
-0.24209,0,113,90
-0.21921,0,114,90
-0.058592,0,115,90
0.18959,0,116,90
0.19912,0,117,90
0.11711,0,118,90
0.10519,0,119,90
-0.062723,0,120,90
-0.20394,0,121,90
-0.14633,0,122,90
-0.0616,0,123,90
-0.051835,0,124,90
0.1509,0,125,90
0.18671,0,126,90
0.16268,0,127,90
-0.046736,0,128,90
-0.14251,0,129,90
-0.042208,0,130,90
0.090988,0,131,90
-0.16783,0,132,90
-0.2179,0,133,90
-0.096895,0,134,90
0.15194,0,135,90
-0.2667,0,136,90
-0.028701,0,137,90
0.18337,0,138,90
0.25578,0,139,90
-0.16489,0,140,90
-0.17095,0,141,90
-0.10164,0,142,90
-0.028402,0,143,90
0.17469,0,144,90
0.30324,0,145,90
-0.14982,0,146,90
0.1436,0,147,90
0.13453,0,148,90
-0.204,0,149,90
-0.15126,0,150,90
0.02025,0,151,90
0.038883,0,152,90
0.01705,0,153,90
-0.029956,0,154,90
0.031367,0,155,90
0.11886,0,156,90
0.16413,0,157,90
0.051529,0,158,90
-0.013661,0,159,90
-0.14915,0,160,90
-0.21275,0,161,90
-0.082017,0,162,90
-0.098298,0,163,90
-0.041852,0,164,90
0.027958,0,165,90
0.1341,0,166,90
0.048632,0,167,90
0.095384,0,168,90
0.12925,0,169,90
0.41183,0,170,90
0.23185,0,171,90
-0.26091,0,172,90
-0.50539,0,173,90
-0.25711,0,174,90
-0.087926,0,175,90
0.32715,0,176,90
0.31074,0,177,90
0.096541,0,178,90
-0.085904,0,179,90
-0.015239,0,180,90
0.19895,0,181,90
0.112,0,182,90
-0.13027,0,183,90
-0.10963,0,184,90
-0.033137,0,185,90
0.015439,0,186,90
-0.2269,0,187,90
-0.17218,0,188,90
0.026756,0,189,90
0.11681,0,190,90
0.10164,0,191,90
0.088351,0,192,90
-0.01315,0,193,90
-0.084649,0,194,90
-0.10557,0,195,90
-0.17639,0,196,90
-0.092396,0,197,90
-0.060655,0,198,90
0.058435,0,199,90
0.14166,0,200,90
0.11462,0,201,90
-0.057033,0,202,90
-0.11187,0,203,90
-0.1124,0,204,90
0.034503,0,205,90
0.025235,0,206,90
-0.019704,0,207,90
0.11911,0,208,90
0.15938,0,209,90
0.054524,0,210,90
0.16698,0,211,90
0.23792,0,212,90
0.071432,0,213,90
-0.16697,0,214,90
-0.27457,0,215,90
-0.18581,0,216,90
-0.035783,0,217,90
0.118,0,218,90
0.21826,0,219,90
0.054409,0,220,90
-0.069405,0,221,90
-0.20503,0,222,90
-0.11875,0,223,90
-0.11109,0,224,90
-0.027439,0,225,90
0.3267,0,226,90
0.16703,0,227,90
-0.053496,0,228,90
-0.22162,0,229,90
0.035016,0,230,90
0.026744,0,231,90
-0.082322,0,232,90
-0.11995,0,233,90
-0.24091,0,234,90
0.092296,0,235,90
-0.027701,0,236,90
-0.20307,0,237,90
-0.092522,0,238,90
0.043499,0,239,90
-0.014881,0,240,90
0.12749,0,241,90
0.27003,0,242,90
0.16888,0,243,90
-0.16344,0,244,90
-0.22358,0,245,90
-0.060197,0,246,90
0.12421,0,247,90
0.24778,0,248,90
0.55337,0,249,90
0.13514,0,250,90
-0.26671,0,251,90
-0.34189,0,252,90
0.11096,0,253,90
0.26679,0,254,90
0.02186,0,255,90
-0.30703,0,0,90
-0.41774,0,1,90
-0.26279,0,2,90
0.19268,0,3,90
0.34754,0,4,90
0.16108,0,5,90
-0.032287,0,6,90
-0.097704,0,7,90
0.16014,0,8,90
0.17851,0,9,90
-0.062638,0,10,90
0.033197,0,11,90
-0.17307,0,12,90
-0.27738,0,13,90
-0.18449,0,14,90
-0.037696,0,15,90
0.1586,0,16,90
0.2244,0,17,90
0.35973,0,18,90
0.21304,0,19,90
0.08085,0,20,90
0.37262,0,21,90
0.15423,0,22,90
-0.1681,0,23,90
-0.4946,0,24,90
-0.40332,0,25,90
-0.30232,0,26,90
-0.077629,0,27,90
-0.02611,0,28,90
0.19724,0,29,90
0.35073,0,30,90
0.52755,0,31,90
0.17183,0,32,90
-0.037117,0,33,90
-0.50519,0,34,90
-0.50357,0,35,90
-0.32391,0,36,90
-0.075771,0,37,90
0.3314,0,38,90
0.17729,0,39,90
-0.15721,0,40,90
-0.019794,0,41,90
0.24873,0,42,90
0.22089,0,43,90
0.14147,0,44,90
-0.035234,0,45,90
-0.24149,0,46,90
-0.18413,0,47,90
-0.34286,0,48,90
-0.19116,0,49,90
0.1243,0,50,90
0.38024,0,51,90
0.30328,0,52,90
-0.063611,0,53,90
-0.1865,0,54,90
-0.23426,0,55,90
-0.18462,0,56,90
0.079503,0,57,90
0.090629,0,58,90
-0.098228,0,59,90
-0.18078,0,60,90
-0.1206,0,61,90
0.21288,0,62,90
0.34341,0,63,90
0.13974,0,64,90
-0.029369,0,65,90
-0.25309,0,66,90
-0.027797,0,67,90
0.75432,0,68,90
0.49091,0,69,90
0.049773,0,70,90
-0.35682,0,71,90
-0.70472,0,72,90
-0.69095,0,73,90
-0.37883,0,74,90
-0.21439,0,75,90
0.15362,0,76,90
0.56534,0,77,90
0.57914,0,78,90
0.15718,0,79,90
-0.13092,0,80,90
-0.27814,0,81,90
-0.072829,0,82,90
0.060815,0,83,90
0.031567,0,84,90
-0.071886,0,85,90
-0.048198,0,86,90
-0.16344,0,87,90
-0.029052,0,88,90
0.33136,0,89,90
0.63788,0,90,90
0.52332,0,91,90
0.43584,0,92,90
0.1242,0,93,90
-0.1176,0,94,90
-0.45849,0,95,90
-0.52604,0,96,90
-0.47117,0,97,90
-0.21515,0,98,90
-0.031719,0,99,90
0.16427,0,100,90
0.22874,0,101,90
0.11702,0,102,90
-0.12397,0,103,90
-0.32855,0,104,90
-0.38091,0,105,90
-0.255,0,106,90
0.092674,0,107,90
0.56685,0,108,90
0.60289,0,109,90
0.19745,0,110,90
-0.19964,0,111,90
0.045519,0,112,90
0.22624,0,113,90
0.435,0,114,90
1.1135,0,115,90
0.17699,0,116,90
-0.58176,0,117,90
-1.1402,0,118,90
-1.0872,0,119,90
-0.38911,0,120,90
-0.056872,0,121,90
0.33618,0,122,90
-0.049291,0,123,90
-0.34206,0,124,90
-0.34245,0,125,90
-0.082974,0,126,90
0.085376,0,127,90
0.33558,0,128,90
0.20867,0,129,90
0.20397,0,130,90
0.30257,0,131,90
0.51522,0,132,90
0.61432,0,133,90
0.22495,0,134,90
-0.1031,0,135,90
-0.077064,0,136,90
0.21251,0,137,90
0.1201,0,138,90
-0.20643,0,139,90
-0.57107,0,140,90
0.014304,0,141,90
-0.41207,0,142,90
-0.6403,0,143,90
-0.7194,0,144,90
-0.71929,0,145,90
0.028034,0,146,90
0.73223,0,147,90
0.73806,0,148,90
0.58956,0,149,90
0.36813,0,150,90
-0.48532,0,151,90
-0.70158,0,152,90
-0.49405,0,153,90
0.15347,0,154,90
0.76321,0,155,90
0.88543,0,156,90
0.69727,0,157,90
0.42431,0,158,90
-0.16717,0,159,90
-0.52048,0,160,90
-0.51234,0,161,90
-0.59969,0,162,90
-0.63607,0,163,90
-0.52445,0,164,90
0.061929,0,165,90
0.28175,0,166,90
0.46724,0,167,90
0.61854,0,168,90
0.71154,0,169,90
0.7332,0,170,90
0.36478,0,171,90
-0.42049,0,172,90
-0.89315,0,173,90
-0.836,0,174,90
-0.60508,0,175,90
-0.43618,0,176,90
-0.13122,0,177,90
0.41247,0,178,90
0.93262,0,179,90
1.0064,0,180,90
0.66917,0,181,90
0.2218,0,182,90
-0.44918,0,183,90
-0.75462,0,184,90
-0.77792,0,185,90
-0.73103,0,186,90
-0.58287,0,187,90
-0.40904,0,188,90
-0.16127,0,189,90
-0.021868,0,190,90
0.19912,0,191,90
0.51165,0,192,90
1.3901,0,193,90
1.7843,0,194,90
0.9703,0,195,90
-0.19567,0,196,90
-1.0944,0,197,90
-1.5153,0,198,90
-1.2857,0,199,90
-0.64216,0,200,90
-0.028511,0,201,90
0.44065,0,202,90
0.74189,0,203,90
0.98323,0,204,90
1.0322,0,205,90
0.59868,0,206,90
0.19969,0,207,90
-0.30063,0,208,90
-0.82767,0,209,90
-1.0662,0,210,90
-0.69698,0,211,90
-0.041333,0,212,90
0.21911,0,213,90
0.25738,0,214,90
-0.23103,0,215,90
-0.043771,0,216,90
0.35983,0,217,90
0.93948,0,218,90
1.1344,0,219,90
0.39059,0,220,90
-0.58872,0,221,90
-1.2238,0,222,90
-1.4212,0,223,90
-1.1751,0,224,90
-0.42406,0,225,90
0.40796,0,226,90
0.52622,0,227,90
0.37224,0,228,90
0.34822,0,229,90
0.43293,0,230,90
0.79874,0,231,90
0.81412,0,232,90
0.54016,0,233,90
0.067185,0,234,90
-0.18355,0,235,90
-0.20415,0,236,90
0.13804,0,237,90
-0.36238,0,238,90
-0.99444,0,239,90
-1.2644,0,240,90
-1.1206,0,241,90
-0.67913,0,242,90
0.034599,0,243,90
0.60658,0,244,90
0.71271,0,245,90
0.81845,0,246,90
1.1289,0,247,90
1.0645,0,248,90
1.0176,0,249,90
0.43016,0,250,90
-0.29899,0,251,90
-0.9651,0,252,90
-0.73138,0,253,90
0.32533,0,254,90
1.1981,0,255,90
0.80606,0,0,90
-0.34097,0,1,90
-1.4213,0,2,90
-2.0815,0,3,90
-2.1989,0,4,90
-1.4398,0,5,90
-0.24979,0,6,90
0.53965,0,7,90
1.0603,0,8,90
1.1954,0,9,90
1.215,0,10,90
1.058,0,11,90
0.47194,0,12,90
0.28483,0,13,90
0.28601,0,14,90
0.2491,0,15,90
-0.036824,0,16,90
-0.15386,0,17,90
-0.63573,0,18,90
-0.7077,0,19,90
-0.83957,0,20,90
-0.92856,0,21,90
-0.81023,0,22,90
-0.56931,0,23,90
-0.50743,0,24,90
-0.17588,0,25,90
0.37427,0,26,90
0.87718,0,27,90
1.3118,0,28,90
1.5143,0,29,90
1.756,0,30,90
1.6845,0,31,90
1.0446,0,32,90
0.14909,0,33,90
-1.1303,0,34,90
-2.0315,0,35,90
-2.3211,0,36,90
-1.8752,0,37,90
-0.94038,0,38,90
0.16696,0,39,90
0.92788,0,40,90
1.1831,0,41,90
1.0493,0,42,90
0.80164,0,43,90
0.86309,0,44,90
0.92509,0,45,90
1.0742,0,46,90
0.61446,0,47,90
-0.46312,0,48,90
-1.4126,0,49,90
-1.9643,0,50,90
-1.8455,0,51,90
-1.0126,0,52,90
0.59855,0,53,90
0.87701,0,54,90
0.84556,0,55,90
0.67508,0,56,90
0.43316,0,57,90
0.076103,0,58,90
-0.088196,0,59,90
-0.25666,0,60,90
-0.20251,0,61,90
-0.13511,0,62,90
0.10488,0,63,90
0.56219,0,64,90
0.75668,0,65,90
0.52394,0,66,90
-0.12313,0,67,90
-0.70105,0,68,90
-1.1848,0,69,90
-1.3306,0,70,90
-1.0309,0,71,90
-0.52983,0,72,90
-0.022424,0,73,90
0.34484,0,74,90
0.70836,0,75,90
0.68783,0,76,90
0.47161,0,77,90
0.080259,0,78,90
0.17766,0,79,90
0.23795,0,80,90
0.30217,0,81,90
-0.054237,0,82,90
-0.78085,0,83,90
-1.2207,0,84,90
-1.1292,0,85,90
-0.50771,0,86,90
0.20344,0,87,90
0.54389,0,88,90
0.60486,0,89,90
0.34722,0,90,90
0.16111,0,91,90
0.12376,0,92,90
0.25603,0,93,90
0.41947,0,94,90
0.44498,0,95,90
0.37907,0,96,90
-0.18105,0,97,90
-0.6376,0,98,90
-0.84004,0,99,90
-0.67518,0,100,90
-0.3,0,101,90
0.10463,0,102,90
0.49209,0,103,90
0.68135,0,104,90
0.86617,0,105,90
0.74639,0,106,90
0.63661,0,107,90
0.33398,0,108,90
-0.039959,0,109,90
-0.18144,0,110,90
-0.33949,0,111,90
-0.22959,0,112,90
0.11391,0,113,90
0.56153,0,114,90
0.49362,0,115,90
0.18247,0,116,90
-0.43496,0,117,90
-1.0208,0,118,90
-1.2588,0,119,90
-1.0172,0,120,90
-0.33414,0,121,90
0.39414,0,122,90
0.88054,0,123,90
0.98849,0,124,90
0.59475,0,125,90
0.47819,0,126,90
0.63508,0,127,90
0.50606,0,128,90
0.15498,0,129,90
-0.47331,0,130,90
-1.0967,0,131,90
-1.5222,0,132,90
-1.4311,0,133,90
-0.83191,0,134,90
-0.14384,0,135,90
0.42157,0,136,90
0.68989,0,137,90
0.65676,0,138,90
0.52709,0,139,90
0.4409,0,140,90
0.3362,0,141,90
0.56083,0,142,90
0.70418,0,143,90
0.65119,0,144,90
0.25163,0,145,90
-0.1957,0,146,90
-0.5496,0,147,90
-0.66147,0,148,90
-0.4782,0,149,90
0.025616,0,150,90
0.34911,0,151,90
0.41398,0,152,90
0.35399,0,153,90
-0.20981,0,154,90
0.053769,0,155,90
0.12094,0,156,90
-0.17796,0,157,90
-0.58262,0,158,90
-0.96992,0,159,90
-1.0563,0,160,90
-0.93619,0,161,90
-0.59694,0,162,90
0.032584,0,163,90
0.54182,0,164,90
0.72223,0,165,90
0.48455,0,166,90
0.17296,0,167,90
-0.14694,0,168,90
-0.24723,0,169,90
-0.035831,0,170,90
0.16126,0,171,90
0.21735,0,172,90
0.010152,0,173,90
-0.11855,0,174,90
-0.095334,0,175,90
0.14369,0,176,90
0.32236,0,177,90
0.37637,0,178,90
0.20025,0,179,90
-0.040546,0,180,90
-0.28245,0,181,90
-0.21944,0,182,90
-0.048541,0,183,90
0.085984,0,184,90
0.11332,0,185,90
0.011132,0,186,90
-0.13017,0,187,90
-0.13665,0,188,90
0.20688,0,189,90
0.52286,0,190,90
0.67261,0,191,90
0.74078,0,192,90
0.12747,0,193,90
-0.62688,0,194,90
-1.0574,0,195,90
-1.2345,0,196,90
-0.95078,0,197,90
-0.33304,0,198,90
0.20798,0,199,90
0.55566,0,200,90
0.67073,0,201,90
0.61941,0,202,90
0.54923,0,203,90
0.45926,0,204,90
0.23812,0,205,90
0.054117,0,206,90
-0.074853,0,207,90
-0.044782,0,208,90
-0.21006,0,209,90
-0.43954,0,210,90
-0.46728,0,211,90
-0.34854,0,212,90
0.055133,0,213,90
0.66186,0,214,90
1.2573,0,215,90
1.0883,0,216,90
0.32456,0,217,90
-0.58964,0,218,90
-1.2604,0,219,90
-1.4871,0,220,90
-0.99496,0,221,90
-0.13245,0,222,90
0.31938,0,223,90
0.47873,0,224,90
0.33113,0,225,90
0.16206,0,226,90
0.064403,0,227,90
0.13418,0,228,90
0.37613,0,229,90
0.36296,0,230,90
0.30389,0,231,90
0.05419,0,232,90
-0.069427,0,233,90
-0.026738,0,234,90
0.043152,0,235,90
0.17349,0,236,90
-0.20825,0,237,90
-0.15937,0,238,90
0.17948,0,239,90
0.26012,0,240,90
0.14704,0,241,90
-0.24145,0,242,90
-0.60621,0,243,90
-0.7132,0,244,90
-0.44764,0,245,90
0.2465,0,246,90
0.36778,0,247,90
0.16926,0,248,90
0.061156,0,249,90
0.049079,0,250,90
0.096615,0,251,90
0.16291,0,252,90
0.13454,0,253,90
0.15621,0,254,90
0.017916,0,255,90
-0.19822,0,0,90
-0.34605,0,1,90
-0.26688,0,2,90
0.063959,0,3,90
0.36624,0,4,90
0.46898,0,5,90
0.24173,0,6,90
0.079463,0,7,90
-0.057847,0,8,90
-0.28855,0,9,90
-0.44632,0,10,90
-0.54877,0,11,90
-0.50312,0,12,90
-0.49901,0,13,90
-0.3629,0,14,90
-0.091575,0,15,90
0.10109,0,16,90
0.19003,0,17,90
0.20427,0,18,90
0.28694,0,19,90
0.27953,0,20,90
0.4035,0,21,90
0.69447,0,22,90
0.84935,0,23,90
0.69793,0,24,90
0.2485,0,25,90
-0.32081,0,26,90
-0.81394,0,27,90
-1.0497,0,28,90
-1.0048,0,29,90
-0.58834,0,30,90
-0.14147,0,31,90
0.12686,0,32,90
0.21142,0,33,90
0.15634,0,34,90
0.12072,0,35,90
0.18214,0,36,90
0.14605,0,37,90
0.1116,0,38,90
0.37852,0,39,90
0.57213,0,40,90
0.61604,0,41,90
0.32711,0,42,90
-0.3471,0,43,90
-0.6691,0,44,90
-0.65677,0,45,90
-0.46938,0,46,90
0.012141,0,47,90
0.52167,0,48,90
0.69476,0,49,90
0.53672,0,50,90
0.21596,0,51,90
-0.034041,0,52,90
-0.31104,0,53,90
-0.42375,0,54,90
-0.347,0,55,90
-0.13048,0,56,90
0.043938,0,57,90
0.19049,0,58,90
0.203,0,59,90
0.23863,0,60,90
0.19327,0,61,90
0.048683,0,62,90
0.040943,0,63,90
0.1976,0,64,90
0.33271,0,65,90
0.12495,0,66,90
-0.2568,0,67,90
-0.34274,0,68,90
-0.52744,0,69,90
-0.57046,0,70,90
-0.48224,0,71,90
-0.35293,0,72,90
-0.29318,0,73,90
-0.017609,0,74,90
0.2865,0,75,90
0.23643,0,76,90
0.2608,0,77,90
0.36507,0,78,90
0.40303,0,79,90
0.48492,0,80,90
0.19134,0,81,90
-0.28803,0,82,90
-0.5991,0,83,90
-0.63151,0,84,90
-0.60171,0,85,90
-0.16795,0,86,90
0.087929,0,87,90
0.08105,0,88,90
-0.099709,0,89,90
0.021922,0,90,90
0.048752,0,91,90
0.50818,0,92,90
1.0316,0,93,90
1.3676,0,94,90
1.2919,0,95,90
0.39172,0,96,90
-0.21792,0,97,90
-0.66557,0,98,90
-0.80627,0,99,90
-0.26828,0,100,90
0.1673,0,101,90
0.24598,0,102,90
-0.15884,0,103,90
-0.88729,0,104,90
-1.0808,0,105,90
-0.40896,0,106,90
0.58438,0,107,90
1.1008,0,108,90
0.4212,0,109,90
-0.17626,0,110,90
-0.92707,0,111,90
-1.285,0,112,90
-1.1501,0,113,90
-0.6763,0,114,90
0.13928,0,115,90
1.2278,0,116,90
1.4576,0,117,90
0.99497,0,118,90
-0.41388,0,119,90
-1.4819,0,120,90
-1.9895,0,121,90
-2.0814,0,122,90
-1.3185,0,123,90
0.20851,0,124,90
1.0948,0,125,90
1.5125,0,126,90
1.6559,0,127,90
1.5696,0,128,90
0.99462,0,129,90
0.50248,0,130,90
0.25528,0,131,90
0.096665,0,132,90
0.1119,0,133,90
0.30046,0,134,90
0.68876,0,135,90
1.0434,0,136,90
1.4413,0,137,90
0.87661,0,138,90
-0.081542,0,139,90
-0.75011,0,140,90
-1.481,0,141,90
-1.8662,0,142,90
-1.5936,0,143,90
-0.7463,0,144,90
0.46019,0,145,90
0.97224,0,146,90
0.84523,0,147,90
0.42932,0,148,90
-0.15581,0,149,90
-0.63667,0,150,90
-0.53023,0,151,90
-0.44944,0,152,90
-0.16335,0,153,90
-0.15975,0,154,90
-0.36752,0,155,90
-0.53168,0,156,90
-0.51753,0,157,90
-0.12464,0,158,90
0.33993,0,159,90
0.99841,0,160,90
0.99231,0,161,90
1.0847,0,162,90
0.73163,0,163,90
0.034871,0,164,90
-0.717,0,165,90
-0.94219,0,166,90
-1.1903,0,167,90
-0.97585,0,168,90
-0.78815,0,169,90
-0.35157,0,170,90
-0.17028,0,171,90
-0.062836,0,172,90
-0.075984,0,173,90
-0.12901,0,174,90
-0.37991,0,175,90
-0.53804,0,176,90
0.24201,0,177,90
1.4622,0,178,90
1.9185,0,179,90
1.1123,0,180,90
-0.163,0,181,90
-1.2168,0,182,90
-1.2371,0,183,90
-0.85181,0,184,90
-0.10743,0,185,90
0.20231,0,186,90
0.016138,0,187,90
0.19593,0,188,90
0.31032,0,189,90
0.42444,0,190,90
0.291,0,191,90
0.063486,0,192,90
-0.13061,0,193,90
0.045424,0,194,90
0.41996,0,195,90
0.96339,0,196,90
1.0616,0,197,90
0.93987,0,198,90
0.34523,0,199,90
-0.5395,0,200,90
-1.0606,0,201,90
-0.66514,0,202,90
0.30969,0,203,90
0.76936,0,204,90
1.0474,0,205,90
0.86981,0,206,90
0.026272,0,207,90
-0.85627,0,208,90
-1.4505,0,209,90
-1.6515,0,210,90
-1.1325,0,211,90
-0.69388,0,212,90
-0.063598,0,213,90
0.077053,0,214,90
0.17635,0,215,90
0.089272,0,216,90
0.23579,0,217,90
0.48342,0,218,90
0.65346,0,219,90
0.5235,0,220,90
0.30665,0,221,90
-0.049887,0,222,90
0.052095,0,223,90
0.50567,0,224,90
0.94168,0,225,90
0.71996,0,226,90
0.70876,0,227,90
0.54217,0,228,90
0.50662,0,229,90
0.05925,0,230,90
-0.65582,0,231,90
-1.127,0,232,90
-1.2719,0,233,90
-1.1579,0,234,90
-0.5471,0,235,90
0.31791,0,236,90
0.7543,0,237,90
0.80948,0,238,90
0.55355,0,239,90
0.28533,0,240,90
-0.33265,0,241,90
-0.21084,0,242,90
-0.23638,0,243,90
-0.46187,0,244,90
-0.4095,0,245,90
-0.31747,0,246,90
-0.29872,0,247,90
-0.35333,0,248,90
-0.5755,0,249,90
-0.76999,0,250,90
-0.79365,0,251,90
-0.36007,0,252,90
-0.036369,0,253,90
1.1752,0,254,90
1.5047,0,255,90
0.66205,0,0,90
-0.15253,0,1,90
-0.78783,0,2,90
-0.47523,0,3,90
-0.12486,0,4,90
0.54715,0,5,90
0.63531,0,6,90
0.14819,0,7,90
-0.4091,0,8,90
-0.79231,0,9,90
-0.88092,0,10,90
-0.59192,0,11,90
0.090304,0,12,90
0.34393,0,13,90
0.53881,0,14,90
0.30106,0,15,90
1.2761,0,16,90
2.6906,0,17,90
1.586,0,18,90
-0.14829,0,19,90
-1.7973,0,20,90
-2.5201,0,21,90
-2.5489,0,22,90
-1.4304,0,23,90
0.018285,0,24,90
0.60255,0,25,90
0.74754,0,26,90
0.70508,0,27,90
1.1543,0,28,90
1.2965,0,29,90
0.85256,0,30,90
2.6169,0,31,90
1.6538,0,32,90
-0.28735,0,33,90
-1.8099,0,34,90
-1.5665,0,35,90
-0.84883,0,36,90
-0.76504,0,37,90
-0.73045,0,38,90
-0.94404,0,39,90
-1.1828,0,40,90
-0.52829,0,41,90
0.59996,0,42,90
1.1069,0,43,90
0.45855,0,44,90
0.77438,0,45,90
0.95626,0,46,90
0.42397,0,47,90
0.48697,0,48,90
-0.084224,0,49,90
-1.2261,0,50,90
-1.9687,0,51,90
-1.9124,0,52,90
-1.4454,0,53,90
0.43671,0,54,90
1.3605,0,55,90
1.4919,0,56,90
1.1086,0,57,90
0.54177,0,58,90
0.7743,0,59,90
1.6711,0,60,90
2.6797,0,61,90
1.9712,0,62,90
-0.041327,0,63,90
-2.0475,0,64,90
-2.491,0,65,90
-1.9077,0,66,90
-0.59955,0,67,90
0.76663,0,68,90
0.79435,0,69,90
-0.086336,0,70,90
-0.7056,0,71,90
-0.89528,0,72,90
-0.75046,0,73,90
0.29816,0,74,90
2.298,0,75,90
2.3874,0,76,90
0.77135,0,77,90
-0.82291,0,78,90
-1.5965,0,79,90
-1.9315,0,80,90
-1.0285,0,81,90
-0.020479,0,82,90
0.95412,0,83,90
0.013589,0,84,90
0.56705,0,85,90
-0.62753,0,86,90
-1.2365,0,87,90
-1.2196,0,88,90
0.067859,0,89,90
1.3562,0,90,90
0.65002,0,91,90
-0.43923,0,92,90
-0.88761,0,93,90
-0.31747,0,94,90
-0.36099,0,95,90
0.074815,0,96,90
-0.061472,0,97,90
0.92135,0,98,90
1.1823,0,99,90
0.51063,0,100,90
0.36238,0,101,90
-0.5823,0,102,90
-0.89034,0,103,90
-0.49754,0,104,90
0.57377,0,105,90
0.45429,0,106,90
-0.14176,0,107,90
-0.62733,0,108,90
-0.56304,0,109,90
-0.12766,0,110,90
0.069917,0,111,90
0.8475,0,112,90
1.2492,0,113,90
0.59473,0,114,90
-0.51227,0,115,90
-0.95056,0,116,90
-0.90796,0,117,90
0.031175,0,118,90
1.6056,0,119,90
1.0134,0,120,90
-0.54361,0,121,90
-1.7039,0,122,90
-1.1592,0,123,90
0.26816,0,124,90
0.77164,0,125,90
0.43438,0,126,90
0.24177,0,127,90
0.09845,0,128,90
0.52726,0,129,90
0.030751,0,130,90
-0.54397,0,131,90
-0.4678,0,132,90
0.38652,0,133,90
0.65641,0,134,90
-0.011262,0,135,90
-0.98284,0,136,90
-0.38967,0,137,90
0.40534,0,138,90
0.14623,0,139,90
-0.45558,0,140,90
-0.13439,0,141,90
0.74367,0,142,90
1.3809,0,143,90
0.56885,0,144,90
-0.76199,0,145,90
-0.91853,0,146,90
-0.4775,0,147,90
0.13588,0,148,90
0.64131,0,149,90
0.75726,0,150,90
0.31252,0,151,90
-0.69557,0,152,90
-1.0269,0,153,90
0.17376,0,154,90
0.88111,0,155,90
0.53642,0,156,90
-0.33657,0,157,90
-0.47216,0,158,90
-0.41763,0,159,90
-0.25872,0,160,90
-0.47563,0,161,90
-0.45037,0,162,90
0.016973,0,163,90
0.68748,0,164,90
0.67357,0,165,90
0.40308,0,166,90
0.91461,0,167,90
0.99194,0,168,90
-0.12773,0,169,90
-1.588,0,170,90
-1.2376,0,171,90
-0.30992,0,172,90
0.041112,0,173,90
0.35801,0,174,90
0.2092,0,175,90
-0.34385,0,176,90
-0.29567,0,177,90
0.62528,0,178,90
0.83265,0,179,90
-0.27273,0,180,90
-0.59248,0,181,90
-0.059309,0,182,90
0.24216,0,183,90
0.67555,0,184,90
0.076841,0,185,90
-0.30215,0,186,90
-0.27841,0,187,90
-0.042297,0,188,90
-0.097756,0,189,90
-0.36084,0,190,90
-0.020726,0,191,90
0.47905,0,192,90
0.37556,0,193,90
0.098861,0,194,90
0.33281,0,195,90
1.061,0,196,90
-0.079835,0,197,90
-1.2192,0,198,90
-0.99682,0,199,90
-0.021779,0,200,90
0.26615,0,201,90
0.046947,0,202,90
0.07919,0,203,90
-0.26264,0,204,90
-0.33876,0,205,90
-0.8452,0,206,90
-0.28671,0,207,90
-0.17293,0,208,90
0.27875,0,209,90
0.51058,0,210,90
0.59623,0,211,90
0.3171,0,212,90
0.38777,0,213,90
0.15509,0,214,90
0.057256,0,215,90
0.455,0,216,90
0.037006,0,217,90
-0.26256,0,218,90
-0.48266,0,219,90
-0.659,0,220,90
-0.26811,0,221,90
0.088663,0,222,90
0.15525,0,223,90
0.076189,0,224,90
0.41824,0,225,90
0.27642,0,226,90
-0.39292,0,227,90
-0.68414,0,228,90
-0.98938,0,229,90
-0.43653,0,230,90
0.30148,0,231,90
0.13984,0,232,90
0.038443,0,233,90
0.30298,0,234,90
0.42847,0,235,90
0.61663,0,236,90
0.022676,0,237,90
-0.29987,0,238,90
0.037302,0,239,90
0.36153,0,240,90
0.42051,0,241,90
0.17108,0,242,90
0.50037,0,243,90
-0.40021,0,244,90
-0.6885,0,245,90
-0.76876,0,246,90
0.19947,0,247,90
0.61783,0,248,90
0.63409,0,249,90
-0.089222,0,250,90
-0.074104,0,251,90
-0.047124,0,252,90
0.1456,0,253,90
-0.032701,0,254,90
-0.48399,0,255,90
-0.50736,0,0,90
-0.41669,0,1,90
0.77683,0,2,90
1.0086,0,3,90
0.62444,0,4,90
0.19415,0,5,90
0.023857,0,6,90
0.095477,0,7,90
0.45046,0,8,90
0.028903,0,9,90
-0.62673,0,10,90
-0.81201,0,11,90
-0.54864,0,12,90
0.051977,0,13,90
-0.44351,0,14,90
-0.36121,0,15,90
-0.10298,0,16,90
0.080455,0,17,90
-0.090844,0,18,90
0.34796,0,19,90
0.37273,0,20,90
0.3861,0,21,90
0.71868,0,22,90
0.33164,0,23,90
-0.21491,0,24,90
-0.43022,0,25,90
-0.90722,0,26,90
-0.64027,0,27,90
-0.10827,0,28,90
0.53965,0,29,90
0.74468,0,30,90
0.20398,0,31,90
0.040815,0,32,90
-0.2768,0,33,90
-0.26295,0,34,90
-0.63687,0,35,90
-0.40991,0,36,90
-0.31141,0,37,90
0.92395,0,38,90
0.23467,0,39,90
0.28299,0,40,90
-0.026317,0,41,90
-0.074436,0,42,90
0.046659,0,43,90
0.39133,0,44,90
-0.052638,0,45,90
-0.30807,0,46,90
-0.63724,0,47,90
-0.66455,0,48,90
-0.62764,0,49,90
0.15417,0,50,90
1.3056,0,51,90
0.9143,0,52,90
-0.063097,0,53,90
-0.51614,0,54,90
0.19389,0,55,90
0.36456,0,56,90
-0.14197,0,57,90
-0.51984,0,58,90
-0.61993,0,59,90
0.17657,0,60,90
-0.44738,0,61,90
-1.0132,0,62,90
-0.34762,0,63,90
-0.089649,0,64,90
-0.20387,0,65,90
0.79971,0,66,90
1.0173,0,67,90
0.58013,0,68,90
1.0155,0,69,90
0.32888,0,70,90
-0.38789,0,71,90
0.23682,0,72,90
-1.0315,0,73,90
-0.061925,0,74,90
-0.50689,0,75,90
-0.25368,0,76,90
0.3978,0,77,90
0.2976,0,78,90
-0.12187,0,79,90
0.05455,0,80,90
0.17995,0,81,90
0.1504,0,82,90
0.10778,0,83,90
-0.25899,0,84,90
-0.76479,0,85,90
-0.43638,0,86,90
0.2289,0,87,90
0.27642,0,88,90
1.2713,0,89,90
1.1616,0,90,90
-0.19696,0,91,90
-0.78067,0,92,90
-0.53976,0,93,90
-0.058354,0,94,90
0.37751,0,95,90
0.50185,0,96,90
0.063351,0,97,90
0.18991,0,98,90
-0.46635,0,99,90
-0.33095,0,100,90
0.37631,0,101,90
-0.5884,0,102,90
-0.87341,0,103,90
-0.077885,0,104,90
0.63502,0,105,90
0.14554,0,106,90
-0.20339,0,107,90
-0.38459,0,108,90
0.11931,0,109,90
0.50115,0,110,90
1.3228,0,111,90
0.70061,0,112,90
-0.31231,0,113,90
-0.47777,0,114,90
-0.24466,0,115,90
-0.40013,0,116,90
-0.57083,0,117,90
-0.4597,0,118,90
0.16068,0,119,90
-0.21122,0,120,90
-0.24712,0,121,90
0.34163,0,122,90
0.13578,0,123,90
0.54292,0,124,90
0.49709,0,125,90
-0.29082,0,126,90
0.33074,0,127,90
0.1304,0,128,90
-0.9061,0,129,90
-1.2903,0,130,90
-0.97271,0,131,90
0.33003,0,132,90
0.18453,0,133,90
0.2826,0,134,90
0.93892,0,135,90
0.68249,0,136,90
-0.12414,0,137,90
0.5797,0,138,90
0.40506,0,139,90
-0.15903,0,140,90
-0.36933,0,141,90
0.40896,0,142,90
0.13964,0,143,90
-1.1304,0,144,90
-0.91559,0,145,90
0.23564,0,146,90
0.11894,0,147,90
0.20992,0,148,90
-0.74781,0,149,90
-1.0953,0,150,90
0.17546,0,151,90
0.53412,0,152,90
0.12071,0,153,90
0.53057,0,154,90
1.0718,0,155,90
0.91572,0,156,90
-0.28147,0,157,90
-1.08,0,158,90
-0.53205,0,159,90
-0.23884,0,160,90
0.2706,0,161,90
1.3769,0,162,90
0.44506,0,163,90
-0.67803,0,164,90
-0.99039,0,165,90
-0.79342,0,166,90
-0.3135,0,167,90
-0.045724,0,168,90
0.3137,0,169,90
0.66122,0,170,90
0.96567,0,171,90
-0.081611,0,172,90
-0.9763,0,173,90
-0.17495,0,174,90
-0.24576,0,175,90
0.14273,0,176,90
0.72312,0,177,90
0.96446,0,178,90
0.014859,0,179,90
-0.24508,0,180,90
-0.18658,0,181,90
-0.2102,0,182,90
0.33933,0,183,90
1.1136,0,184,90
1.0604,0,185,90
-0.17819,0,186,90
-1.0285,0,187,90
-0.69838,0,188,90
-0.25084,0,189,90
-0.23991,0,190,90
-0.24821,0,191,90
0.086955,0,192,90
-0.068312,0,193,90
-0.49779,0,194,90
-0.078249,0,195,90
-0.22738,0,196,90
0.025054,0,197,90
0.069274,0,198,90
0.61967,0,199,90
0.91968,0,200,90
0.46689,0,201,90
0.49136,0,202,90
0.34132,0,203,90
-0.35899,0,204,90
-0.6599,0,205,90
-0.41301,0,206,90
-0.19965,0,207,90
0.36857,0,208,90
-0.14119,0,209,90
-0.76687,0,210,90
-0.76467,0,211,90
-0.52967,0,212,90
-0.03102,0,213,90
0.5537,0,214,90
0.89141,0,215,90
0.40892,0,216,90
-0.21387,0,217,90
-0.098757,0,218,90
0.079263,0,219,90
0.12786,0,220,90
0.21893,0,221,90
-0.36688,0,222,90
-0.70966,0,223,90
-0.2144,0,224,90
0.054144,0,225,90
0.47951,0,226,90
0.39087,0,227,90
0.31715,0,228,90
0.13579,0,229,90
-0.39565,0,230,90
-0.37866,0,231,90
-0.06278,0,232,90
-0.16064,0,233,90
0.12813,0,234,90
0.077483,0,235,90
-0.20172,0,236,90
0.33774,0,237,90
0.19768,0,238,90
-0.062685,0,239,90
0.27107,0,240,90
-0.37949,0,241,90
-0.66712,0,242,90
-0.21396,0,243,90
0.25594,0,244,90
0.33514,0,245,90
0.22761,0,246,90
0.18135,0,247,90
0.028886,0,248,90
-0.01641,0,249,90
0.2069,0,250,90
0.21343,0,251,90
-0.09009,0,252,90
-0.36269,0,253,90
-0.37077,0,254,90
-0.035382,0,255,90
0.024567,0,0,90
-0.018743,0,1,90
-0.10349,0,2,90
0.32311,0,3,90
0.31636,0,4,90
-0.012113,0,5,90
-0.27209,0,6,90
0.28343,0,7,90
0.41128,0,8,90
-0.082342,0,9,90
-0.23715,0,10,90
-0.30522,0,11,90
-0.20831,0,12,90
-0.10875,0,13,90
0.17971,0,14,90
0.35985,0,15,90
0.39695,0,16,90
0.19085,0,17,90
-0.52732,0,18,90
-0.6799,0,19,90
-0.32371,0,20,90
-0.028594,0,21,90
0.13693,0,22,90
0.21637,0,23,90
0.13867,0,24,90
0.18341,0,25,90
0.096791,0,26,90
0.015453,0,27,90
-0.042299,0,28,90
-0.042615,0,29,90
0.16398,0,30,90
0.22557,0,31,90
0.025778,0,32,90
-0.070184,0,33,90
0.11906,0,34,90
0.37198,0,35,90
0.16851,0,36,90
-0.55245,0,37,90
-0.4364,0,38,90
-0.056689,0,39,90
0.19689,0,40,90
0.10394,0,41,90
0.10727,0,42,90
0.01168,0,43,90
-0.081391,0,44,90
-0.20853,0,45,90
-0.17749,0,46,90
-0.13186,0,47,90
-0.043501,0,48,90
-0.090534,0,49,90
0.11089,0,50,90
-0.032497,0,51,90
0.083609,0,52,90
-0.029261,0,53,90
0.040027,0,54,90
0.15423,0,55,90
0.045153,0,56,90
0.027552,0,57,90
-0.21622,0,58,90
-0.42061,0,59,90
-0.27284,0,60,90
0.28583,0,61,90
0.47223,0,62,90
0.27475,0,63,90
-0.081251,0,64,90
-0.16605,0,65,90
-0.012861,0,66,90
-0.032659,0,67,90
-0.041644,0,68,90
0.074275,0,69,90
0.075967,0,70,90
0.043,0,71,90
0.13741,0,72,90
0.041208,0,73,90
-0.14512,0,74,90
0.044364,0,75,90
0.029977,0,76,90
-0.25021,0,77,90
-0.23825,0,78,90
0.077563,0,79,90
0.25949,0,80,90
0.13573,0,81,90
-0.1241,0,82,90
-0.064866,0,83,90
0.25593,0,84,90
0.34165,0,85,90
0.14059,0,86,90
-0.031979,0,87,90
-0.025184,0,88,90
-0.063057,0,89,90
0.20119,0,90,90
0.18934,0,91,90
-0.27908,0,92,90
-0.50262,0,93,90
-0.073441,0,94,90
0.046307,0,95,90
-0.1204,0,96,90
0.05015,0,97,90
0.11193,0,98,90
0.024668,0,99,90
-0.024251,0,100,90
0.071168,0,101,90
0.07382,0,102,90
0.027596,0,103,90
0.11474,0,104,90
0.14241,0,105,90
0.025995,0,106,90
-0.26347,0,107,90
-0.22012,0,108,90
0.047599,0,109,90
-0.013791,0,110,90
-0.28258,0,111,90
-0.33769,0,112,90
-0.031034,0,113,90
0.10934,0,114,90
0.1039,0,115,90
0.050177,0,116,90
-0.19669,0,117,90
-0.20837,0,118,90
0.092668,0,119,90
0.19997,0,120,90
0.20346,0,121,90
0.34783,0,122,90
0.056433,0,123,90
-0.039189,0,124,90
-0.17482,0,125,90
-0.038962,0,126,90
-0.06367,0,127,90
-0.12108,0,128,90
-0.057148,0,129,90
0.19655,0,130,90
0.12661,0,131,90
-0.075814,0,132,90
-0.071114,0,133,90
0.032533,0,134,90
0.14725,0,135,90
0.076129,0,136,90
0.017776,0,137,90
-0.21328,0,138,90
-0.075126,0,139,90
-0.16411,0,140,90
-0.25128,0,141,90
-0.022997,0,142,90
0.31567,0,143,90
0.26492,0,144,90
0.11934,0,145,90
0.020437,0,146,90
0.023387,0,147,90
-0.06596,0,148,90
-0.012632,0,149,90
-0.16819,0,150,90
-0.12171,0,151,90
0.097021,0,152,90
0.30864,0,153,90
0.18473,0,154,90
0.055687,0,155,90
-0.14946,0,156,90
-0.12562,0,157,90
-0.15034,0,158,90
-0.10518,0,159,90
-0.037281,0,160,90
-0.072485,0,161,90
-0.060594,0,162,90
-0.12758,0,163,90
0.02339,0,164,90
0.014213,0,165,90
0.088899,0,166,90
0.20739,0,167,90
0.31727,0,168,90
0.14016,0,169,90
0.11451,0,170,90
-0.043756,0,171,90
-0.36127,0,172,90
-0.42032,0,173,90
-0.19371,0,174,90
0.071921,0,175,90
-0.049535,0,176,90
-0.19793,0,177,90
-0.28063,0,178,90
-0.1197,0,179,90
0.084133,0,180,90
0.3271,0,181,90
0.40574,0,182,90
0.36402,0,183,90
0.25461,0,184,90
0.33162,0,185,90
0.18524,0,186,90
-0.054682,0,187,90
-0.082045,0,188,90
-0.062538,0,189,90
-0.044498,0,190,90
-0.20228,0,191,90
-0.17076,0,192,90
-0.080839,0,193,90
-0.20996,0,194,90
-0.20768,0,195,90
-0.12063,0,196,90
-0.019825,0,197,90
0.011992,0,198,90
0.025069,0,199,90
0.16356,0,200,90
0.098733,0,201,90
0.044625,0,202,90
-0.049844,0,203,90
0.045533,0,204,90
0.096879,0,205,90
0.11396,0,206,90
0.019004,0,207,90
0.011314,0,208,90
-0.061483,0,209,90
0.093985,0,210,90
0.26017,0,211,90
-0.070544,0,212,90
-0.25783,0,213,90
-0.35531,0,214,90
-0.11458,0,215,90
0.10892,0,216,90
0.13088,0,217,90
-0.011972,0,218,90
-0.17245,0,219,90
-0.23576,0,220,90
-0.086648,0,221,90
-0.040362,0,222,90
0.020101,0,223,90
0.070271,0,224,90
0.13422,0,225,90
0.18227,0,226,90
0.30241,0,227,90
0.16247,0,228,90
-0.058173,0,229,90
-0.052904,0,230,90
0.14606,0,231,90
0.20774,0,232,90
0.058114,0,233,90
-0.072276,0,234,90
-0.16323,0,235,90
-0.37256,0,236,90
-0.36698,0,237,90
-0.13158,0,238,90
0.10781,0,239,90
0.42021,0,240,90
0.18022,0,241,90
-0.30148,0,242,90
-0.38996,0,243,90
-0.12501,0,244,90
0.27382,0,245,90
0.26304,0,246,90
0.092383,0,247,90
0.072529,0,248,90
-0.036679,0,249,90
-0.02753,0,250,90
0.15194,0,251,90
0.44426,0,252,90
0.24064,0,253,90
-0.18492,0,254,90
-0.53897,0,255,90
-0.38808,0,0,90
0.11677,0,1,90
0.065305,0,2,90
-0.26919,0,3,90
-0.43464,0,4,90
-0.010186,0,5,90
0.23832,0,6,90
0.20924,0,7,90
-0.071442,0,8,90
0.018839,0,9,90
0.12101,0,10,90
0.10138,0,11,90
0.18774,0,12,90
0.14677,0,13,90
0.099138,0,14,90
0.43406,0,15,90
0.29797,0,16,90
-0.11127,0,17,90
-0.49994,0,18,90
-0.58241,0,19,90
-0.44332,0,20,90
-0.078159,0,21,90
0.20405,0,22,90
0.36243,0,23,90
0.43334,0,24,90
0.12164,0,25,90
-0.18436,0,26,90
-0.032596,0,27,90
0.091903,0,28,90
0.16778,0,29,90
-0.011717,0,30,90
-0.11566,0,31,90
-0.27608,0,32,90
-0.31124,0,33,90
-0.25867,0,34,90
-0.19541,0,35,90
0.18427,0,36,90
0.63513,0,37,90
0.46585,0,38,90
0.16168,0,39,90
0.084998,0,40,90
0.078138,0,41,90
-0.27673,0,42,90
-0.52896,0,43,90
-0.68868,0,44,90
-0.47627,0,45,90
-0.11946,0,46,90
0.1873,0,47,90
0.24686,0,48,90
0.43215,0,49,90
0.35046,0,50,90
0.25201,0,51,90
0.044937,0,52,90
-0.12803,0,53,90
-0.14106,0,54,90
-0.15412,0,55,90
0.15774,0,56,90
0.24643,0,57,90
0.12333,0,58,90
-0.030142,0,59,90
-0.1061,0,60,90
-0.18178,0,61,90
0.023717,0,62,90
0.022717,0,63,90
0.034046,0,64,90
0.13992,0,65,90
0.17335,0,66,90
0.24316,0,67,90
0.079569,0,68,90
-0.18065,0,69,90
-0.44827,0,70,90
-0.073204,0,71,90
-0.1406,0,72,90
-0.22734,0,73,90
-0.23577,0,74,90
-0.30729,0,75,90
0.32098,0,76,90
0.51594,0,77,90
0.17133,0,78,90
-0.29612,0,79,90
-0.62323,0,80,90
-0.56305,0,81,90
-0.084373,0,82,90
0.46589,0,83,90
0.73836,0,84,90
0.79234,0,85,90
0.36932,0,86,90
0.019414,0,87,90
-0.7172,0,88,90
-0.83634,0,89,90
-0.72045,0,90,90
-0.55751,0,91,90
-0.29188,0,92,90
-0.016093,0,93,90
0.23457,0,94,90
0.62969,0,95,90
0.58608,0,96,90
0.40571,0,97,90
0.18822,0,98,90
0.067875,0,99,90
0.25969,0,100,90
0.22349,0,101,90
0.29704,0,102,90
-0.023214,0,103,90
-0.12371,0,104,90
-0.041093,0,105,90
0.14375,0,106,90
0.26361,0,107,90
0.48257,0,108,90
0.16077,0,109,90
-0.14899,0,110,90
-0.27505,0,111,90
-0.05331,0,112,90
0.029897,0,113,90
-0.15146,0,114,90
-0.45699,0,115,90
-0.21752,0,116,90
-0.066153,0,117,90
0.24569,0,118,90
0.2388,0,119,90
0.24543,0,120,90
-0.35298,0,121,90
-0.56979,0,122,90
-0.7886,0,123,90
-0.54022,0,124,90
-0.026265,0,125,90
0.15882,0,126,90
-0.038391,0,127,90
-0.2136,0,128,90
-0.18309,0,129,90
-0.019955,0,130,90
0.42706,0,131,90
0.95412,0,132,90
1.1976,0,133,90
0.40328,0,134,90
-0.49193,0,135,90
-1.0537,0,136,90
-1.2428,0,137,90
-0.98335,0,138,90
-0.34839,0,139,90
0.10512,0,140,90
0.46774,0,141,90
0.52349,0,142,90
0.5584,0,143,90
0.33174,0,144,90
0.56283,0,145,90
0.65755,0,146,90
0.45293,0,147,90
-0.010922,0,148,90
-0.39565,0,149,90
-0.51596,0,150,90
-0.47647,0,151,90
-0.20474,0,152,90
0.20543,0,153,90
0.56675,0,154,90
1.02,0,155,90
0.58305,0,156,90
-0.015191,0,157,90
-0.47209,0,158,90
-0.70433,0,159,90
-0.54628,0,160,90
-0.14451,0,161,90
0.15214,0,162,90
0.18169,0,163,90
0.46396,0,164,90
0.35049,0,165,90
0.14501,0,166,90
-0.07516,0,167,90
-0.16636,0,168,90
-0.31435,0,169,90
-0.39085,0,170,90
0.11444,0,171,90
0.43056,0,172,90
0.8645,0,173,90
0.44074,0,174,90
0.51543,0,175,90
0.097947,0,176,90
-0.74874,0,177,90
-1.1674,0,178,90
-1.3766,0,179,90
-1.0768,0,180,90
-0.48256,0,181,90
0.25515,0,182,90
0.59328,0,183,90
0.32866,0,184,90
-0.084838,0,185,90
-0.019469,0,186,90
-0.064423,0,187,90
-0.10656,0,188,90
0.02505,0,189,90
0.30253,0,190,90
0.87849,0,191,90
1.2391,0,192,90
0.62868,0,193,90
-0.16589,0,194,90
-0.77851,0,195,90
-0.96273,0,196,90
-0.48874,0,197,90
-0.085696,0,198,90
0.16563,0,199,90
0.045963,0,200,90
-0.085887,0,201,90
0.39901,0,202,90
0.50231,0,203,90
0.13607,0,204,90
-0.25327,0,205,90
-0.52003,0,206,90
-0.61617,0,207,90
0.03135,0,208,90
1.0478,0,209,90
0.88992,0,210,90
0.27783,0,211,90
-0.45127,0,212,90
-0.72047,0,213,90
-0.72728,0,214,90
-0.40505,0,215,90
-0.10842,0,216,90
0.16992,0,217,90
0.018996,0,218,90
-0.10949,0,219,90
-0.043569,0,220,90
0.098185,0,221,90
0.33727,0,222,90
0.49213,0,223,90
0.62526,0,224,90
0.27143,0,225,90
-0.031176,0,226,90
-0.33755,0,227,90
-0.50114,0,228,90
-0.59302,0,229,90
-0.44358,0,230,90
-0.10207,0,231,90
0.093286,0,232,90
0.29753,0,233,90
0.2394,0,234,90
0.33075,0,235,90
0.58704,0,236,90
0.53317,0,237,90
0.55563,0,238,90
0.46921,0,239,90
0.36858,0,240,90
0.075899,0,241,90
-0.46498,0,242,90
-0.97735,0,243,90
-1.2934,0,244,90
-1.1028,0,245,90
-0.44379,0,246,90
0.6432,0,247,90
1.3121,0,248,90
1.2154,0,249,90
0.34198,0,250,90
-0.4351,0,251,90
-0.66721,0,252,90
-0.3181,0,253,90
0.020554,0,254,90
0.098425,0,255,90
-0.28874,0,0,90
-0.45149,0,1,90
-0.5412,0,2,90
-0.17625,0,3,90
0.29254,0,4,90
0.40305,0,5,90
0.54699,0,6,90
0.437,0,7,90
0.071392,0,8,90
0.26668,0,9,90
-0.21384,0,10,90
-0.70088,0,11,90
-0.65316,0,12,90
0.17055,0,13,90
0.40514,0,14,90
0.029763,0,15,90
-0.13356,0,16,90
0.20716,0,17,90
0.43,0,18,90
-0.2647,0,19,90
-0.25646,0,20,90
0.032722,0,21,90
0.092163,0,22,90
0.050925,0,23,90
-0.23816,0,24,90
-0.68478,0,25,90
-1.3043,0,26,90
-1.3956,0,27,90
-0.73608,0,28,90
0.27424,0,29,90
1.0927,0,30,90
1.2572,0,31,90
0.8922,0,32,90
0.30218,0,33,90
-0.061123,0,34,90
-0.18969,0,35,90
0.36487,0,36,90
0.60697,0,37,90
0.8384,0,38,90
0.98063,0,39,90
0.95978,0,40,90
0.70224,0,41,90
0.22036,0,42,90
-0.26795,0,43,90
-0.48167,0,44,90
-0.218,0,45,90
0.48094,0,46,90
0.84243,0,47,90
0.60775,0,48,90
-0.25341,0,49,90
-0.88172,0,50,90
-1.0098,0,51,90
-0.93192,0,52,90
-0.62976,0,53,90
-0.32771,0,54,90
-0.052122,0,55,90
0.35138,0,56,90
0.65888,0,57,90
0.14503,0,58,90
-0.66942,0,59,90
-1.2953,0,60,90
-1.481,0,61,90
-1.1086,0,62,90
-0.10254,0,63,90
0.84306,0,64,90
1.0235,0,65,90
0.23941,0,66,90
-0.56484,0,67,90
-0.94406,0,68,90
-0.97341,0,69,90
-0.41305,0,70,90
0.19126,0,71,90
0.44195,0,72,90
0.45503,0,73,90
0.40201,0,74,90
0.27444,0,75,90
0.36363,0,76,90
0.45032,0,77,90
0.25951,0,78,90
-0.031819,0,79,90
-0.19212,0,80,90
0.035786,0,81,90
0.5964,0,82,90
0.70584,0,83,90
0.58501,0,84,90
-0.071996,0,85,90
-0.88685,0,86,90
-1.2415,0,87,90
-1.1687,0,88,90
-0.65846,0,89,90
0.13593,0,90,90
0.65,0,91,90
0.80547,0,92,90
0.78838,0,93,90
0.5889,0,94,90
0.3655,0,95,90
0.011151,0,96,90
-0.32097,0,97,90
-0.36243,0,98,90
-0.28418,0,99,90
0.050308,0,100,90
0.39876,0,101,90
0.55931,0,102,90
0.30839,0,103,90
-0.15753,0,104,90
-0.54022,0,105,90
-0.74306,0,106,90
-0.53018,0,107,90
0.52767,0,108,90
0.91668,0,109,90
1.0445,0,110,90
0.79651,0,111,90
0.16312,0,112,90
-0.3475,0,113,90
-0.54182,0,114,90
-0.45623,0,115,90
-0.18578,0,116,90
-0.011886,0,117,90
-0.043822,0,118,90
-0.23464,0,119,90
-0.33328,0,120,90
-0.42916,0,121,90
-0.36573,0,122,90
-0.080052,0,123,90
0.44141,0,124,90
0.73658,0,125,90
0.89157,0,126,90
0.77852,0,127,90
0.18298,0,128,90
-0.51056,0,129,90
-0.7137,0,130,90
-0.45035,0,131,90
0.25713,0,132,90
0.63624,0,133,90
0.35441,0,134,90
-0.15204,0,135,90
-0.62032,0,136,90
-0.51804,0,137,90
-0.22393,0,138,90
0.11798,0,139,90
0.11516,0,140,90
-0.18486,0,141,90
-0.49403,0,142,90
-0.70798,0,143,90
-0.60024,0,144,90
0.49342,0,145,90
0.77827,0,146,90
0.60709,0,147,90
0.23106,0,148,90
-0.20565,0,149,90
-0.43296,0,150,90
-0.35865,0,151,90
0.028456,0,152,90
0.12446,0,153,90
0.33865,0,154,90
0.35445,0,155,90
0.12059,0,156,90
-0.25054,0,157,90
-0.54133,0,158,90
-0.59724,0,159,90
-0.53557,0,160,90
-0.096645,0,161,90
0.23187,0,162,90
0.18432,0,163,90
0.1237,0,164,90
0.010928,0,165,90
0.026799,0,166,90
0.23644,0,167,90
0.37312,0,168,90
0.44107,0,169,90
0.44657,0,170,90
0.19981,0,171,90
-0.010305,0,172,90
-0.060431,0,173,90
-0.19036,0,174,90
-0.16818,0,175,90
0.20025,0,176,90
0.45302,0,177,90
0.4235,0,178,90
0.36602,0,179,90
0.38865,0,180,90
0.18265,0,181,90
-0.44406,0,182,90
-0.74005,0,183,90
-0.8256,0,184,90
-0.83923,0,185,90
-0.51173,0,186,90
-0.52834,0,187,90
-0.63354,0,188,90
-0.68844,0,189,90
-0.55431,0,190,90
-0.038638,0,191,90
0.83954,0,192,90
1.4571,0,193,90
1.2994,0,194,90
0.87827,0,195,90
0.052034,0,196,90
-0.78371,0,197,90
-1.2505,0,198,90
-1.3197,0,199,90
-0.73402,0,200,90
0.13762,0,201,90
0.80007,0,202,90
1.0479,0,203,90
0.96089,0,204,90
0.73519,0,205,90
0.30328,0,206,90
-0.17796,0,207,90
-0.52162,0,208,90
-0.48935,0,209,90
-0.32243,0,210,90
-0.043556,0,211,90
0.11016,0,212,90
0.18011,0,213,90
0.60401,0,214,90
1.0042,0,215,90
1.2387,0,216,90
1.1772,0,217,90
0.43286,0,218,90
-0.69211,0,219,90
-1.505,0,220,90
-1.8024,0,221,90
-1.5879,0,222,90
-0.88308,0,223,90
-0.27126,0,224,90
0.12134,0,225,90
0.28318,0,226,90
0.65649,0,227,90
1.0279,0,228,90
1.146,0,229,90
0.95012,0,230,90
0.34254,0,231,90
-0.31091,0,232,90
-0.73234,0,233,90
-0.91084,0,234,90
-0.76914,0,235,90
-0.33279,0,236,90
0.02597,0,237,90
0.26689,0,238,90
0.35102,0,239,90
0.33736,0,240,90
0.26759,0,241,90
0.25691,0,242,90
0.32019,0,243,90
0.35099,0,244,90
0.22959,0,245,90
0.039129,0,246,90
-0.21482,0,247,90
-0.43778,0,248,90
-0.56783,0,249,90
-0.31462,0,250,90
0.024968,0,251,90
0.29724,0,252,90
0.27176,0,253,90
-0.17752,0,254,90
-0.59764,0,255,90
-0.82489,0,0,90
-0.62971,0,1,90
-0.15425,0,2,90
0.24255,0,3,90
0.40088,0,4,90
0.42753,0,5,90
0.49734,0,6,90
0.51354,0,7,90
0.46036,0,8,90
0.35458,0,9,90
0.23897,0,10,90
-0.14982,0,11,90
-0.4224,0,12,90
-0.58892,0,13,90
-0.59412,0,14,90
-0.45902,0,15,90
-0.1804,0,16,90
0.40404,0,17,90
0.68563,0,18,90
0.81353,0,19,90
0.48459,0,20,90
-0.2236,0,21,90
-0.72468,0,22,90
-0.80995,0,23,90
-0.63689,0,24,90
-0.22484,0,25,90
0.24422,0,26,90
0.39486,0,27,90
0.38276,0,28,90
0.22391,0,29,90
0.20154,0,30,90
0.32093,0,31,90
0.40334,0,32,90
0.53251,0,33,90
0.25458,0,34,90
-0.07407,0,35,90
-0.45709,0,36,90
-0.74111,0,37,90
-0.67583,0,38,90
-0.51026,0,39,90
-0.13635,0,40,90
0.31906,0,41,90
0.58129,0,42,90
0.47043,0,43,90
0.12954,0,44,90
-0.22835,0,45,90
-0.51915,0,46,90
-0.56987,0,47,90
-0.37881,0,48,90
0.13589,0,49,90
0.39966,0,50,90
0.73593,0,51,90
0.8666,0,52,90
1.0455,0,53,90
0.81453,0,54,90
-0.79201,0,55,90
-1.4538,0,56,90
-1.0916,0,57,90
-0.12951,0,58,90
0.5522,0,59,90
0.68189,0,60,90
0.041907,0,61,90
-0.77581,0,62,90
-1.4786,0,63,90
-1.79,0,64,90
-1.1059,0,65,90
0.36236,0,66,90
1.3529,0,67,90
1.7725,0,68,90
1.5367,0,69,90
0.84129,0,70,90
0.39231,0,71,90
-0.15392,0,72,90
-0.36728,0,73,90
-0.71481,0,74,90
-0.94591,0,75,90
-1.1766,0,76,90
-0.93934,0,77,90
0.095299,0,78,90
0.96235,0,79,90
1.2278,0,80,90
0.86811,0,81,90
0.59553,0,82,90
0.75343,0,83,90
0.7842,0,84,90
0.4308,0,85,90
0.14504,0,86,90
-0.54639,0,87,90
-0.76903,0,88,90
-0.20462,0,89,90
0.10685,0,90,90
0.55642,0,91,90
0.61239,0,92,90
-0.15189,0,93,90
-0.7676,0,94,90
-1.0032,0,95,90
-0.92259,0,96,90
-0.5038,0,97,90
-0.064687,0,98,90
-0.39992,0,99,90
-0.70436,0,100,90
-0.95801,0,101,90
-0.71005,0,102,90
-0.22399,0,103,90
-0.43442,0,104,90
-0.70398,0,105,90
-0.50791,0,106,90
0.50414,0,107,90
1.0994,0,108,90
0.7918,0,109,90
-0.73946,0,110,90
-1.2711,0,111,90
-0.76124,0,112,90
0.35929,0,113,90
1.5141,0,114,90
1.6186,0,115,90
1.2569,0,116,90
0.54262,0,117,90
0.065113,0,118,90
0.92346,0,119,90
1.353,0,120,90
1.2718,0,121,90
0.77757,0,122,90
0.60188,0,123,90
0.26354,0,124,90
0.19725,0,125,90
-0.13241,0,126,90
-0.42529,0,127,90
-0.15228,0,128,90
0.04379,0,129,90
1.5151,0,130,90
2.0935,0,131,90
1.4582,0,132,90
-0.44162,0,133,90
-2.6123,0,134,90
-3.8316,0,135,90
-3.3897,0,136,90
-1.1549,0,137,90
1.0283,0,138,90
2.1723,0,139,90
2.7596,0,140,90
1.938,0,141,90
0.32604,0,142,90
-1.2167,0,143,90
-2.2172,0,144,90
-2.1549,0,145,90
-1.0277,0,146,90
0.099695,0,147,90
0.55048,0,148,90
0.41898,0,149,90
0.35613,0,150,90
1.2709,0,151,90
2.7602,0,152,90
3.1324,0,153,90
1.6671,0,154,90
-0.8505,0,155,90
-2.7968,0,156,90
-3.959,0,157,90
-3.7946,0,158,90
-1.9922,0,159,90
0.14359,0,160,90
1.3601,0,161,90
1.743,0,162,90
1.4771,0,163,90
1.2648,0,164,90
0.8294,0,165,90
0.65953,0,166,90
1.4998,0,167,90
2.746,0,168,90
2.3495,0,169,90
0.5877,0,170,90
-1.4751,0,171,90
-3.1548,0,172,90
-3.8869,0,173,90
-2.8516,0,174,90
-0.78574,0,175,90
0.42592,0,176,90
0.89051,0,177,90
1.1431,0,178,90
1.1418,0,179,90
0.96384,0,180,90
0.94233,0,181,90
0.88136,0,182,90
0.2958,0,183,90
-0.091215,0,184,90
-0.17582,0,185,90
-0.33992,0,186,90
-0.87534,0,187,90
-1.116,0,188,90
-1.0609,0,189,90
-0.21941,0,190,90
0.52914,0,191,90
1.1031,0,192,90
0.62805,0,193,90
0.076266,0,194,90
-0.79325,0,195,90
-1.1867,0,196,90
-0.14941,0,197,90
0.61425,0,198,90
0.58731,0,199,90
0.35306,0,200,90
0.1625,0,201,90
-0.36337,0,202,90
-0.57538,0,203,90
0.43653,0,204,90
1.0901,0,205,90
0.89866,0,206,90
1.0821,0,207,90
1.0526,0,208,90
-1.2824,0,209,90
-2.0987,0,210,90
-2.0947,0,211,90
-1.6417,0,212,90
-0.79927,0,213,90
0.30172,0,214,90
1.2859,0,215,90
1.6734,0,216,90
1.883,0,217,90
1.3331,0,218,90
0.49983,0,219,90
0.34104,0,220,90
1.3257,0,221,90
1.0439,0,222,90
0.079742,0,223,90
-0.77788,0,224,90
-1.4706,0,225,90
-1.9031,0,226,90
-1.4503,0,227,90
-0.021149,0,228,90
0.63459,0,229,90
0.37204,0,230,90
-0.093704,0,231,90
-0.18233,0,232,90
-0.10776,0,233,90
0.41988,0,234,90
1.222,0,235,90
1.2084,0,236,90
0.018096,0,237,90
-1.339,0,238,90
-2.1721,0,239,90
-2.0022,0,240,90
-1.5289,0,241,90
-0.96452,0,242,90
-0.040187,0,243,90
1.1829,0,244,90
1.544,0,245,90
0.93542,0,246,90
0.64618,0,247,90
1.7529,0,248,90
1.4464,0,249,90
0.88732,0,250,90
-0.13968,0,251,90
-1.5228,0,252,90
-1.5523,0,253,90
-1.5917,0,254,90
-0.51453,0,255,90
1.3466,0,0,90
1.0782,0,1,90
0.042193,0,2,90
-0.53742,0,3,90
0.027981,0,4,90
0.6269,0,5,90
0.064959,0,6,90
0.021691,0,7,90
0.60138,0,8,90
-0.63522,0,9,90
-1.0456,0,10,90
-0.94564,0,11,90
-1.117,0,12,90
0.74383,0,13,90
1.3444,0,14,90
0.70642,0,15,90
-0.046626,0,16,90
-1.1428,0,17,90
-0.77708,0,18,90
0.55291,0,19,90
0.46495,0,20,90
0.48363,0,21,90
0.40793,0,22,90
-0.49371,0,23,90
-0.98263,0,24,90
-0.7633,0,25,90
-0.5338,0,26,90
2.1053,0,27,90
1.2811,0,28,90
0.15315,0,29,90
-0.8472,0,30,90
-1.0278,0,31,90
1.0024,0,32,90
2.1015,0,33,90
1.1362,0,34,90
-1.043,0,35,90
-2.4666,0,36,90
-2.4125,0,37,90
-0.47248,0,38,90
1.3208,0,39,90
1.2105,0,40,90
1.4914,0,41,90
0.42261,0,42,90
-1.3085,0,43,90
-1.0012,0,44,90
1.2799,0,45,90
1.1078,0,46,90
-0.18125,0,47,90
-1.3181,0,48,90
-1.5132,0,49,90
-1.0971,0,50,90
-0.10909,0,51,90
0.51897,0,52,90
0.55759,0,53,90
1.1357,0,54,90
1.0227,0,55,90
0.60589,0,56,90
-0.10228,0,57,90
-1.2019,0,58,90
-1.1002,0,59,90
0.047266,0,60,90
0.7056,0,61,90
0.50959,0,62,90
1.0119,0,63,90
-0.067447,0,64,90
-1.0977,0,65,90
-1.2006,0,66,90
-0.10427,0,67,90
0.59795,0,68,90
0.421,0,69,90
0.040626,0,70,90
0.59244,0,71,90
0.81145,0,72,90
1.1136,0,73,90
0.010942,0,74,90
-0.7453,0,75,90
-1.097,0,76,90
0.037827,0,77,90
0.15903,0,78,90
-0.17309,0,79,90
-0.3928,0,80,90
0.036876,0,81,90
0.17743,0,82,90
0.6108,0,83,90
0.17738,0,84,90
-0.4959,0,85,90
-0.52496,0,86,90
-0.46383,0,87,90
-0.014178,0,88,90
0.79509,0,89,90
1.1426,0,90,90
0.54034,0,91,90
-0.49334,0,92,90
-1.6694,0,93,90
-1.2818,0,94,90
0.30254,0,95,90
0.19676,0,96,90
0.47808,0,97,90
0.59431,0,98,90
0.062742,0,99,90
-0.87152,0,100,90
-1.0969,0,101,90
0.18607,0,102,90
1.4861,0,103,90
1.5537,0,104,90
0.3508,0,105,90
-0.75579,0,106,90
-0.95281,0,107,90
-0.84908,0,108,90
-0.19156,0,109,90
0.26494,0,110,90
-0.044583,0,111,90
-0.026204,0,112,90
0.3618,0,113,90
0.66459,0,114,90
-0.094806,0,115,90
-0.47355,0,116,90
-0.15211,0,117,90
-0.17751,0,118,90
-0.29331,0,119,90
-0.18594,0,120,90
-0.15708,0,121,90
0.37823,0,122,90
0.23811,0,123,90
-0.48343,0,124,90
-0.31688,0,125,90
0.15899,0,126,90
0.97388,0,127,90
1.3771,0,128,90
0.55533,0,129,90
-0.33028,0,130,90
-0.78824,0,131,90
-0.64054,0,132,90
-0.23877,0,133,90
-0.15102,0,134,90
-0.044405,0,135,90
-0.50469,0,136,90
-0.085749,0,137,90
0.101,0,138,90
0.41609,0,139,90
0.65975,0,140,90
0.27723,0,141,90
0.045153,0,142,90
0.35623,0,143,90
0.4855,0,144,90
-0.20788,0,145,90
-0.14604,0,146,90
0.029626,0,147,90
-0.18077,0,148,90
0.071487,0,149,90
-0.074112,0,150,90
0.041541,0,151,90
-0.021243,0,152,90
-0.056227,0,153,90
-0.070005,0,154,90
-0.25812,0,155,90
-0.11261,0,156,90
-0.78125,0,157,90
-0.45028,0,158,90
0.15841,0,159,90
0.74874,0,160,90
0.65485,0,161,90
0.61221,0,162,90
0.54427,0,163,90
0.15084,0,164,90
-0.47235,0,165,90
-0.58066,0,166,90
-0.29427,0,167,90
-0.33831,0,168,90
-0.14984,0,169,90
-0.18869,0,170,90
-0.03709,0,171,90
-0.53723,0,172,90
0.031482,0,173,90
-0.23386,0,174,90
-0.081779,0,175,90
0.43168,0,176,90
0.46699,0,177,90
0.11261,0,178,90
-0.12494,0,179,90
-0.29386,0,180,90
0.24311,0,181,90
0.1625,0,182,90
-0.2439,0,183,90
-0.93291,0,184,90
-0.6193,0,185,90
-0.063802,0,186,90
0.63179,0,187,90
0.44527,0,188,90
0.89397,0,189,90
0.96181,0,190,90
0.55948,0,191,90
-0.30779,0,192,90
0.034529,0,193,90
-0.22595,0,194,90
-0.28507,0,195,90
-0.8261,0,196,90
-0.50783,0,197,90
0.20773,0,198,90
0.41808,0,199,90
0.40147,0,200,90
0.18192,0,201,90
0.11413,0,202,90
0.097354,0,203,90
-0.26393,0,204,90
-1.0382,0,205,90
-1.1626,0,206,90
-0.3932,0,207,90
0.39594,0,208,90
0.85185,0,209,90
1.6639,0,210,90
0.41682,0,211,90
-0.44542,0,212,90
-0.30059,0,213,90
0.20015,0,214,90
-0.035702,0,215,90
-0.47711,0,216,90
-0.30584,0,217,90
-0.36127,0,218,90
-0.5258,0,219,90
-0.25933,0,220,90
0.63431,0,221,90
1.0423,0,222,90
0.57645,0,223,90
-0.81929,0,224,90
-0.86026,0,225,90
-0.35852,0,226,90
0.21818,0,227,90
0.66405,0,228,90
0.55133,0,229,90
-0.12628,0,230,90
-0.77832,0,231,90
-0.68744,0,232,90
-0.14867,0,233,90
0.38412,0,234,90
0.32811,0,235,90
0.01867,0,236,90
0.42888,0,237,90
0.44466,0,238,90
0.54192,0,239,90
0.46544,0,240,90
-0.91041,0,241,90
-1.2612,0,242,90
-0.68778,0,243,90
-0.094489,0,244,90
-0.22248,0,245,90
-0.071799,0,246,90
0.20799,0,247,90
0.69545,0,248,90
0.27484,0,249,90
0.28013,0,250,90
1.4823,0,251,90
1.0492,0,252,90
0.01038,0,253,90
-1.2608,0,254,90
-1.28,0,255,90
-0.9097,0,0,90
0.063223,0,1,90
0.96474,0,2,90
0.81436,0,3,90
0.49937,0,4,90
0.80142,0,5,90
0.1932,0,6,90
-1.062,0,7,90
-1.2876,0,8,90
-0.98265,0,9,90
0.48472,0,10,90
0.73238,0,11,90
0.034201,0,12,90
0.041149,0,13,90
0.66646,0,14,90
0.6929,0,15,90
-0.54488,0,16,90
1.2892,0,17,90
0.80219,0,18,90
-1.4767,0,19,90
-2.425,0,20,90
-1.0497,0,21,90
0.21308,0,22,90
0.59648,0,23,90
1.1196,0,24,90
0.90506,0,25,90
0.19417,0,26,90
-0.86704,0,27,90
-0.28614,0,28,90
1.9946,0,29,90
0.22313,0,30,90
-1.4118,0,31,90
-1.3554,0,32,90
0.10786,0,33,90
0.14803,0,34,90
0.062102,0,35,90
-0.061247,0,36,90
-0.39189,0,37,90
-0.25912,0,38,90
-0.62355,0,39,90
0.22317,0,40,90
1.5042,0,41,90
1.4736,0,42,90
0.25141,0,43,90
-0.8078,0,44,90
-0.48959,0,45,90
-0.38504,0,46,90
-0.10589,0,47,90
-0.10486,0,48,90
-0.4166,0,49,90
-0.092405,0,50,90
0.99877,0,51,90
0.81894,0,52,90
-0.34956,0,53,90
-0.75122,0,54,90
-0.12445,0,55,90
0.78739,0,56,90
1.2538,0,57,90
0.67646,0,58,90
-0.46095,0,59,90
-1.0241,0,60,90
-1.8089,0,61,90
-1.9243,0,62,90
-0.28472,0,63,90
0.3934,0,64,90
0.61796,0,65,90
0.6029,0,66,90
1.75,0,67,90
2.6401,0,68,90
-0.22452,0,69,90
-2.0913,0,70,90
-2.012,0,71,90
-1.3406,0,72,90
-0.65151,0,73,90
0.49625,0,74,90
1.0747,0,75,90
0.61549,0,76,90
0.65786,0,77,90
0.37032,0,78,90
0.16173,0,79,90
0.12435,0,80,90
0.094017,0,81,90
0.7402,0,82,90
0.46239,0,83,90
-0.84487,0,84,90
-1.0846,0,85,90
0.084823,0,86,90
0.94317,0,87,90
-0.052882,0,88,90
-0.21193,0,89,90
-0.60825,0,90,90
-1.2337,0,91,90
-0.63831,0,92,90
0.46121,0,93,90
1.3366,0,94,90
1.9685,0,95,90
0.45196,0,96,90
-0.74516,0,97,90
-1.8228,0,98,90
-1.2089,0,99,90
0.04323,0,100,90
0.78046,0,101,90
0.35627,0,102,90
0.057792,0,103,90
-0.34854,0,104,90
0.090281,0,105,90
1.4445,0,106,90
0.59097,0,107,90
-0.18726,0,108,90
-0.30545,0,109,90
0.39161,0,110,90
0.72536,0,111,90
-0.30351,0,112,90
-0.77872,0,113,90
0.25826,0,114,90
-0.28856,0,115,90
-1.5992,0,116,90
-1.5313,0,117,90
-0.16328,0,118,90
0.87302,0,119,90
