0.35271,0,1,86
0.57665,0,2,86
0.36057,0,3,86
-0.19656,0,4,86
-0.22604,0,5,86
0.014855,0,6,86
0.18608,0,7,86
0.46783,0,8,86
0.30903,0,9,86
-0.2201,0,10,86
0.041745,0,11,86
0.10074,0,12,86
-0.21761,0,13,86
-0.38583,0,14,86
-0.62309,0,15,86
0.082168,0,16,86
0.26801,0,17,86
0.6573,0,18,86
0.37734,0,19,86
-0.14713,0,20,86
-0.40247,0,21,86
-0.48045,0,22,86
-0.39234,0,23,86
-0.2944,0,24,86
0.34978,0,25,86
-0.27199,0,26,86
0.14742,0,27,86
0.10975,0,28,86
0.19025,0,29,86
-0.27446,0,30,86
-0.36813,0,31,86
0.43485,0,32,86
-0.098616,0,33,86
-0.027282,0,34,86
-0.58279,0,35,86
-2.2188,0,36,86
-1.268,0,37,86
-0.67585,0,38,86
0.29909,0,39,86
0.21783,0,40,86
1.1506,0,41,86
0.42864,0,42,86
0.25219,0,43,86
0.13375,0,44,86
-0.087414,0,45,86
-0.067266,0,46,86
0.66337,0,47,86
-0.10382,0,48,86
-0.19288,0,49,86
-0.2548,0,50,86
-0.075378,0,51,86
-0.12461,0,52,86
-0.15113,0,53,86
0.15671,0,54,86
-0.26395,0,55,86
-0.058773,0,56,86
0.045164,0,57,86
-0.53069,0,58,86
-0.60505,0,59,86
0.36869,0,60,86
0.57051,0,61,86
0.37648,0,62,86
-0.18943,0,63,86
-0.40399,0,64,86
-0.43892,0,65,86
-0.17038,0,66,86
-0.089951,0,67,86
-0.020593,0,68,86
0.34955,0,69,86
0.25731,0,70,86
-0.15439,0,71,86
-0.49345,0,72,86
-0.027024,0,73,86
-0.063294,0,74,86
0.35378,0,75,86
0.6726,0,76,86
0.32917,0,77,86
-0.14447,0,78,86
-0.80988,0,79,86
-0.34581,0,80,86
-0.47711,0,81,86
0.088429,0,82,86
0.40999,0,83,86
0.34087,0,84,86
0.12093,0,85,86
-0.059939,0,86,86
0.15953,0,87,86
0.59377,0,88,86
0.23418,0,89,86
0.30477,0,90,86
0.16069,0,91,86
-0.13145,0,92,86
-0.36799,0,93,86
-0.13186,0,94,86
-0.55745,0,95,86
0.72691,0,96,86
0.77535,0,97,86
0.59636,0,98,86
-0.12957,0,99,86
-0.45174,0,100,86
-0.38862,0,101,86
-0.24332,0,102,86
0.54987,0,103,86
-0.11146,0,104,86
0.090578,0,105,86
0.073717,0,106,86
-0.054218,0,107,86
-0.096008,0,108,86
0.21217,0,109,86
-0.34635,0,110,86
-0.13348,0,111,86
-0.15929,0,112,86
0.080252,0,113,86
0.16072,0,114,86
0.53636,0,115,86
0.40746,0,116,86
0.074834,0,117,86
-0.13845,0,118,86
-0.096205,0,119,86
-0.13089,0,120,86
0.022441,0,121,86
-0.28872,0,122,86
-0.013406,0,123,86
0.48108,0,124,86
0.61084,0,125,86
0.14167,0,126,86
-0.35337,0,127,86
-0.034828,0,128,86
-0.22049,0,129,86
-0.1194,0,130,86
0.053972,0,131,86
0.086748,0,132,86
0.17422,0,133,86
0.10793,0,134,86
0.46849,0,135,86
-0.35841,0,136,86
-0.28947,0,137,86
-0.14356,0,138,86
-0.18822,0,139,86
-0.22937,0,140,86
-0.20644,0,141,86
0.50749,0,142,86
-0.33059,0,143,86
0.35296,0,144,86
0.29067,0,145,86
0.25496,0,146,86
0.13994,0,147,86
-0.10266,0,148,86
-0.10595,0,149,86
-1.0465,0,150,86
-0.23158,0,151,86
-0.26051,0,152,86
-0.10687,0,153,86
-0.4957,0,154,86
-0.5024,0,155,86
-0.15104,0,156,86
0.13457,0,157,86
0.66063,0,158,86
-0.21631,0,159,86
-0.47054,0,160,86
-0.50581,0,161,86
0.022134,0,162,86
0.29209,0,163,86
0.3032,0,164,86
0.46717,0,165,86
-0.17929,0,166,86
-0.79474,0,167,86
-0.76677,0,168,86
-0.18543,0,169,86
0.13904,0,170,86
0.47862,0,171,86
0.54327,0,172,86
0.58875,0,173,86
0.40402,0,174,86
0.048752,0,175,86
-0.12545,0,176,86
-0.34898,0,177,86
-0.1433,0,178,86
-0.17943,0,179,86
-0.058371,0,180,86
0.46999,0,181,86
0.17769,0,182,86
0.3362,0,183,86
0.10532,0,184,86
0.28402,0,185,86
0.042274,0,186,86
-0.18698,0,187,86
-0.23582,0,188,86
-0.42731,0,189,86
-0.33162,0,190,86
-0.35103,0,191,86
0.54629,0,192,86
0.092893,0,193,86
-0.050351,0,194,86
-0.09554,0,195,86
0.18456,0,196,86
0.28456,0,197,86
0.74271,0,198,86
1.1357,0,199,86
-0.014786,0,200,86
0.16618,0,201,86
-0.094536,0,202,86
-0.017948,0,203,86
0.14867,0,204,86
0.62856,0,205,86
-0.10345,0,206,86
0.49418,0,207,86
-0.28641,0,208,86
-0.44494,0,209,86
-0.25268,0,210,86
-0.26778,0,211,86
-0.10671,0,212,86
-0.050935,0,213,86
0.57556,0,214,86
-0.36353,0,215,86
-0.64641,0,216,86
-0.60324,0,217,86
-0.55304,0,218,86
-0.45897,0,219,86
-0.11511,0,220,86
0.73809,0,221,86
0.67453,0,222,86
0.31964,0,223,86
-0.11563,0,224,86
-0.38707,0,225,86
-0.80078,0,226,86
-0.59498,0,227,86
-0.24683,0,228,86
0.15474,0,229,86
0.25172,0,230,86
-0.13867,0,231,86
-0.2337,0,232,86
-0.10392,0,233,86
0.30835,0,234,86
0.41138,0,235,86
0.27141,0,236,86
0.065945,0,237,86
-0.50436,0,238,86
-0.3231,0,239,86
-0.10047,0,240,86
0.408,0,241,86
0.23519,0,242,86
0.17362,0,243,86
-0.10453,0,244,86
-0.37183,0,245,86
-0.26417,0,246,86
0.063057,0,247,86
0.80499,0,248,86
0.38931,0,249,86
0.51197,0,250,86
0.66982,0,251,86
0.62869,0,252,86
0.091112,0,253,86
-0.19354,0,254,86
0.16793,0,255,86
-0.82201,0,0,86
-0.42176,0,1,86
-0.65507,0,2,86
-0.45323,0,3,86
-0.06682,0,4,86
0.39205,0,5,86
1.0841,0,6,86
0.31286,0,7,86
0.47682,0,8,86
-0.18136,0,9,86
-0.06209,0,10,86
-0.010525,0,11,86
-0.73235,0,12,86
-1.0493,0,13,86
-0.93441,0,14,86
0.22013,0,15,86
-0.043382,0,16,86
0.017707,0,17,86
-0.078176,0,18,86
-0.39837,0,19,86
-0.27384,0,20,86
-0.24969,0,21,86
0.33824,0,22,86
0.1866,0,23,86
0.43301,0,24,86
0.46042,0,25,86
0.43091,0,26,86
-0.016595,0,27,86
-0.072348,0,28,86
0.051252,0,29,86
-0.10749,0,30,86
-0.37218,0,31,86
-0.43106,0,32,86
-0.11008,0,33,86
0.078206,0,34,86
0.52121,0,35,86
0.30215,0,36,86
0.030509,0,37,86
-0.074487,0,38,86
-0.27631,0,39,86
-0.23009,0,40,86
-0.36855,0,41,86
0.12607,0,42,86
0.43349,0,43,86
0.48643,0,44,86
0.23178,0,45,86
-0.049736,0,46,86
-0.26505,0,47,86
0.61662,0,48,86
0.25413,0,49,86
0.2869,0,50,86
0.27261,0,51,86
0.22851,0,52,86
-0.202,0,53,86
-0.38573,0,54,86
0.30586,0,55,86
-0.31823,0,56,86
0.29772,0,57,86
0.13198,0,58,86
0.10435,0,59,86
-0.12289,0,60,86
-0.88582,0,61,86
-0.48381,0,62,86
-0.74143,0,63,86
0.17824,0,64,86
0.33896,0,65,86
0.64169,0,66,86
0.50085,0,67,86
0.38475,0,68,86
0.65457,0,69,86
-0.50936,0,70,86
-0.013766,0,71,86
-0.44372,0,72,86
-0.18557,0,73,86
0.05862,0,74,86
0.18694,0,75,86
0.27407,0,76,86
-0.066518,0,77,86
0.49367,0,78,86
-0.24154,0,79,86
-0.26545,0,80,86
-0.19858,0,81,86
-0.16826,0,82,86
-0.22301,0,83,86
-0.1893,0,84,86
0.29094,0,85,86
-0.086405,0,86,86
-0.13143,0,87,86
-0.22882,0,88,86
-0.13167,0,89,86
-0.14634,0,90,86
-0.14596,0,91,86
-0.088881,0,92,86
-0.22876,0,93,86
-0.12504,0,94,86
-0.02539,0,95,86
0.10326,0,96,86
-0.12257,0,97,86
-0.1447,0,98,86
-0.44546,0,99,86
-0.29459,0,100,86
-0.20542,0,101,86
0.021814,0,102,86
0.38629,0,103,86
0.32756,0,104,86
0.4752,0,105,86
0.045978,0,106,86
-0.20316,0,107,86
-0.060798,0,108,86
0.17439,0,109,86
0.22679,0,110,86
-0.15336,0,111,86
0.48191,0,112,86
-0.24921,0,113,86
-0.063964,0,114,86
-0.049256,0,115,86
0.12985,0,116,86
-0.13254,0,117,86
0.020436,0,118,86
1.0831,0,119,86
0.11084,0,120,86
-0.035243,0,121,86
-0.24494,0,122,86
-0.16095,0,123,86
-0.14937,0,124,86
0.34269,0,125,86
0.93962,0,126,86
0.1471,0,127,86
0.42473,0,128,86
-0.26961,0,129,86
-0.91263,0,130,86
-1.1326,0,131,86
-0.79901,0,132,86
-0.36747,0,133,86
-0.16965,0,134,86
0.54128,0,135,86
-0.356,0,136,86
-0.26048,0,137,86
0.086539,0,138,86
0.471,0,139,86
0.74823,0,140,86
0.52826,0,141,86
0.39274,0,142,86
-0.1541,0,143,86
-0.31008,0,144,86
-0.23245,0,145,86
0.091483,0,146,86
0.083526,0,147,86
0.16096,0,148,86
0.10653,0,149,86
-0.24207,0,150,86
-0.57741,0,151,86
-0.47175,0,152,86
-0.064646,0,153,86
0.19829,0,154,86
0.74597,0,155,86
0.78255,0,156,86
0.63014,0,157,86
0.37642,0,158,86
-0.27741,0,159,86
-0.57471,0,160,86
-0.02515,0,161,86
0.068079,0,162,86
-0.11478,0,163,86
-0.31148,0,164,86
-0.35104,0,165,86
-0.22725,0,166,86
-0.37208,0,167,86
0.4623,0,168,86
0.21037,0,169,86
0.40263,0,170,86
0.22972,0,171,86
-0.10354,0,172,86
-0.33082,0,173,86
-0.1618,0,174,86
0.43914,0,175,86
-0.42967,0,176,86
0.22376,0,177,86
0.33911,0,178,86
0.38268,0,179,86
-0.16944,0,180,86
-0.18528,0,181,86
0.41692,0,182,86
-0.24389,0,183,86
0.38723,0,184,86
-0.4935,0,185,86
-0.48866,0,186,86
-0.034492,0,187,86
0.19341,0,188,86
0.056082,0,189,86
-0.22646,0,190,86
0.1529,0,191,86
-0.47863,0,192,86
-0.15521,0,193,86
-0.11833,0,194,86
0.0593,0,195,86
-0.65296,0,196,86
-0.87222,0,197,86
0.01847,0,198,86
0.26986,0,199,86
0.71472,0,200,86
0.62566,0,201,86
0.36201,0,202,86
-0.13018,0,203,86
-0.077376,0,204,86
0.11359,0,205,86
-0.094331,0,206,86
-0.20622,0,207,86
-0.23647,0,208,86
-0.56254,0,209,86
-0.19798,0,210,86
0.17259,0,211,86
0.28849,0,212,86
0.013241,0,213,86
-0.086181,0,214,86
-0.13659,0,215,86
0.28162,0,216,86
-0.14418,0,217,86
-0.34087,0,218,86
-0.37295,0,219,86
-0.35305,0,220,86
-0.2191,0,221,86
0.073397,0,222,86
1.0994,0,223,86
0.53557,0,224,86
0.50364,0,225,86
0.089481,0,226,86
0.015598,0,227,86
-0.20351,0,228,86
-0.029875,0,229,86
0.97511,0,230,86
0.17256,0,231,86
-0.039579,0,232,86
-0.38142,0,233,86
-0.15055,0,234,86
-0.24122,0,235,86
-0.10337,0,236,86
0.49363,0,237,86
-0.19701,0,238,86
0.52067,0,239,86
-0.027505,0,240,86
-0.28797,0,241,86
-0.11806,0,242,86
-0.015774,0,243,86
0.088504,0,244,86
0.17027,0,245,86
0.43532,0,246,86
-0.5554,0,247,86
-0.66884,0,248,86
-0.37869,0,249,86
-0.41078,0,250,86
-0.080344,0,251,86
0.1729,0,252,86
0.54207,0,253,86
-0.25053,0,254,86
-0.28486,0,255,86
-0.25448,0,0,86
-0.31805,0,1,86
0.19904,0,2,86
0.044138,0,3,86
-0.20693,0,4,86
-0.21484,0,5,86
0.24137,0,6,86
0.33437,0,7,86
-0.051209,0,8,86
-0.17012,0,9,86
-0.34707,0,10,86
0.15424,0,11,86
0.94878,0,12,86
0.9766,0,13,86
0.71541,0,14,86
0.19596,0,15,86
0.35338,0,16,86
0.013127,0,17,86
0.11234,0,18,86
0.1524,0,19,86
0.067805,0,20,86
-0.043294,0,21,86
-0.55585,0,22,86
-0.26087,0,23,86
-0.78011,0,24,86
-0.62625,0,25,86
-0.21557,0,26,86
-0.13655,0,27,86
-0.077188,0,28,86
0.018386,0,29,86
0.5339,0,30,86
-0.41412,0,31,86
0.19199,0,32,86
0.19003,0,33,86
0.33859,0,34,86
0.19562,0,35,86
0.13452,0,36,86
0.41674,0,37,86
-0.19657,0,38,86
0.82102,0,39,86
0.44395,0,40,86
0.14718,0,41,86
-0.42904,0,42,86
-0.69939,0,43,86
-0.33287,0,44,86
-0.39166,0,45,86
0.1577,0,46,86
-0.50109,0,47,86
-0.52886,0,48,86
-0.20635,0,49,86
-0.30758,0,50,86
-0.27158,0,51,86
-0.07925,0,52,86
0.25102,0,53,86
-0.19064,0,54,86
-0.23642,0,55,86
0.045693,0,56,86
-0.0584,0,57,86
-0.53707,0,58,86
-0.44646,0,59,86
-0.14204,0,60,86
0.28734,0,61,86
0.62463,0,62,86
0.60715,0,63,86
0.19052,0,64,86
-0.26279,0,65,86
-0.19212,0,66,86
-0.23802,0,67,86
-0.24122,0,68,86
0.035861,0,69,86
-0.08971,0,70,86
0.11882,0,71,86
0.24653,0,72,86
0.60554,0,73,86
0.11655,0,74,86
0.2105,0,75,86
0.3641,0,76,86
0.12391,0,77,86
0.094512,0,78,86
-0.011063,0,79,86
0.56295,0,80,86
0.11434,0,81,86
0.23166,0,82,86
0.26054,0,83,86
0.019868,0,84,86
-0.43418,0,85,86
-0.30875,0,86,86
0.43972,0,87,86
-0.36629,0,88,86
0.14947,0,89,86
0.15934,0,90,86
-0.012533,0,91,86
-0.14005,0,92,86
-0.48567,0,93,86
-0.51262,0,94,86
0.22971,0,95,86
-0.13354,0,96,86
-0.17166,0,97,86
-0.39079,0,98,86
-0.53053,0,99,86
-0.19941,0,100,86
0.58077,0,101,86
0.11133,0,102,86
0.75146,0,103,86
-0.032938,0,104,86
-0.18196,0,105,86
-0.05675,0,106,86
-0.24794,0,107,86
-0.16485,0,108,86
-0.0667,0,109,86
0.68576,0,110,86
0.22198,0,111,86
0.32622,0,112,86
0.50075,0,113,86
0.3379,0,114,86
-0.14356,0,115,86
-0.24943,0,116,86
0.087462,0,117,86
-0.44854,0,118,86
-0.4074,0,119,86
-0.25535,0,120,86
-0.1822,0,121,86
-0.53246,0,122,86
-0.56897,0,123,86
-0.15992,0,124,86
0.29328,0,125,86
0.68638,0,126,86
0.59592,0,127,86
0.36473,0,128,86
0.073752,0,129,86
-0.046149,0,130,86
-0.1971,0,131,86
-0.068497,0,132,86
0.11491,0,133,86
0.011775,0,134,86
-0.1,0,135,86
-0.40644,0,136,86
-0.017774,0,137,86
0.135,0,138,86
0.45784,0,139,86
0.6642,0,140,86
0.3838,0,141,86
-0.11411,0,142,86
-0.75345,0,143,86
-0.28183,0,144,86
-0.5387,0,145,86
-0.10995,0,146,86
0.2661,0,147,86
0.60462,0,148,86
0.33541,0,149,86
0.16188,0,150,86
0.46839,0,151,86
-0.66435,0,152,86
-0.23202,0,153,86
0.2087,0,154,86
0.40512,0,155,86
0.23049,0,156,86
0.1041,0,157,86
0.37138,0,158,86
-0.50265,0,159,86
-0.11583,0,160,86
-1.0528,0,161,86
-0.79898,0,162,86
-0.25292,0,163,86
-0.35147,0,164,86
-0.1794,0,165,86
-0.15574,0,166,86
0.21294,0,167,86
-0.4325,0,168,86
-0.38809,0,169,86
-0.41591,0,170,86
-0.21965,0,171,86
0.33292,0,172,86
0.77257,0,173,86
1.113,0,174,86
0.38274,0,175,86
0.067254,0,176,86
0.08295,0,177,86
-0.10104,0,178,86
-0.12797,0,179,86
-0.046023,0,180,86
-0.34186,0,181,86
-0.51755,0,182,86
-0.43097,0,183,86
-0.0912,0,184,86
0.35627,0,185,86
0.38199,0,186,86
0.41229,0,187,86
0.21265,0,188,86
0.19252,0,189,86
0.31358,0,190,86
-0.10469,0,191,86
-0.16981,0,192,86
-0.10228,0,193,86
0.21203,0,194,86
-0.09237,0,195,86
-0.11623,0,196,86
-0.20029,0,197,86
-0.18487,0,198,86
-0.058687,0,199,86
-0.12545,0,200,86
0.29822,0,201,86
-0.17037,0,202,86
0.17838,0,203,86
0.40535,0,204,86
0.49562,0,205,86
0.10688,0,206,86
0.022192,0,207,86
0.62449,0,208,86
-0.14306,0,209,86
-0.044211,0,210,86
-0.3826,0,211,86
-0.44484,0,212,86
-0.43209,0,213,86
-0.06473,0,214,86
0.40588,0,215,86
-0.24613,0,216,86
0.46441,0,217,86
-0.19305,0,218,86
0.14404,0,219,86
0.61793,0,220,86
0.52297,0,221,86
0.43212,0,222,86
0.21186,0,223,86
0.54591,0,224,86
-0.30799,0,225,86
-0.26592,0,226,86
-0.023241,0,227,86
-0.11894,0,228,86
-0.22634,0,229,86
-0.28164,0,230,86
0.088011,0,231,86
-0.29713,0,232,86
-0.32685,0,233,86
-0.25633,0,234,86
-0.33052,0,235,86
-0.51084,0,236,86
-0.51629,0,237,86
-0.49475,0,238,86
-0.23452,0,239,86
-0.058395,0,240,86
-0.025313,0,241,86
0.22397,0,242,86
-0.34775,0,243,86
-0.65242,0,244,86
-0.71862,0,245,86
-0.33204,0,246,86
0.17758,0,247,86
0.49717,0,248,86
0.42007,0,249,86
-0.07269,0,250,86
0.32943,0,251,86
0.45735,0,252,86
0.62903,0,253,86
0.71668,0,254,86
0.6231,0,255,86
0.55411,0,0,86
0.24159,0,1,86
0.44969,0,2,86
-0.52315,0,3,86
-0.51971,0,4,86
-0.37913,0,5,86
-0.024645,0,6,86
-0.30175,0,7,86
-0.057387,0,8,86
0.71744,0,9,86
0.051587,0,10,86
0.44678,0,11,86
0.079895,0,12,86
-0.35875,0,13,86
-0.6092,0,14,86
-0.20578,0,15,86
0.75207,0,16,86
0.12977,0,17,86
0.59022,0,18,86
-0.02348,0,19,86
0.060675,0,20,86
-0.31283,0,21,86
-0.33693,0,22,86
-0.34069,0,23,86
0.4055,0,24,86
-0.12921,0,25,86
-0.27505,0,26,86
-0.46869,0,27,86
-0.80134,0,28,86
-0.62162,0,29,86
-0.18607,0,30,86
0.71675,0,31,86
0.46065,0,32,86
0.22666,0,33,86
-0.21671,0,34,86
-0.17188,0,35,86
-0.23322,0,36,86
-0.15058,0,37,86
-0.27748,0,38,86
-0.28024,0,39,86
-0.32372,0,40,86
0.10492,0,41,86
-0.17801,0,42,86
0.041592,0,43,86
0.15511,0,44,86
0.22734,0,45,86
0.37752,0,46,86
0.1378,0,47,86
0.16242,0,48,86
0.056066,0,49,86
0.2242,0,50,86
0.19184,0,51,86
0.61478,0,52,86
0.677,0,53,86
0.39795,0,54,86
0.25381,0,55,86
-0.10978,0,56,86
0.39871,0,57,86
-0.10124,0,58,86
0.070762,0,59,86
0.22735,0,60,86
0.31557,0,61,86
-0.33846,0,62,86
-0.79981,0,63,86
-0.098243,0,64,86
-0.75879,0,65,86
-0.035221,0,66,86
0.28596,0,67,86
0.32822,0,68,86
-0.33533,0,69,86
-0.38041,0,70,86
0.51442,0,71,86
0.50276,0,72,86
-0.037188,0,73,86
-0.2646,0,74,86
-0.16043,0,75,86
-0.13903,0,76,86
-0.22298,0,77,86
-0.18715,0,78,86
0.49681,0,79,86
-0.24432,0,80,86
-0.23664,0,81,86
-0.25589,0,82,86
-0.41545,0,83,86
-0.37777,0,84,86
-0.10808,0,85,86
0.46406,0,86,86
0.099981,0,87,86
0.036356,0,88,86
0.072708,0,89,86
0.10137,0,90,86
-0.17769,0,91,86
-0.22746,0,92,86
-0.14906,0,93,86
-0.18305,0,94,86
-0.18226,0,95,86
-0.27947,0,96,86
-0.39272,0,97,86
-0.65335,0,98,86
-0.46366,0,99,86
-0.29248,0,100,86
0.053974,0,101,86
0.17942,0,102,86
0.25753,0,103,86
-0.26411,0,104,86
0.26096,0,105,86
0.41907,0,106,86
0.72794,0,107,86
0.77066,0,108,86
0.57812,0,109,86
0.5548,0,110,86
0.2157,0,111,86
0.44803,0,112,86
-0.10131,0,113,86
-0.047947,0,114,86
-0.20616,0,115,86
-0.28405,0,116,86
-0.20089,0,117,86
0.022175,0,118,86
0.68968,0,119,86
0.24975,0,120,86
-0.096537,0,121,86
-0.14967,0,122,86
-0.36105,0,123,86
-0.22649,0,124,86
0.40994,0,125,86
0.026324,0,126,86
0.81041,0,127,86
0.058687,0,128,86
-0.17474,0,129,86
-0.084486,0,130,86
-0.13375,0,131,86
-0.12911,0,132,86
-0.18637,0,133,86
0.5043,0,134,86
-0.073135,0,135,86
0.17016,0,136,86
0.012984,0,137,86
-0.23487,0,138,86
-0.2578,0,139,86
0.02096,0,140,86
-0.59062,0,141,86
-0.60176,0,142,86
-0.18761,0,143,86
0.010699,0,144,86
-0.40587,0,145,86
-0.26798,0,146,86
0.24945,0,147,86
0.41448,0,148,86
0.28697,0,149,86
0.15936,0,150,86
-0.18109,0,151,86
-0.66418,0,152,86
-0.60134,0,153,86
-0.3687,0,154,86
0.061494,0,155,86
0.15975,0,156,86
-0.15036,0,157,86
-0.29261,0,158,86
-0.39131,0,159,86
-0.11062,0,160,86
0.43375,0,161,86
0.88286,0,162,86
0.7657,0,163,86
0.25668,0,164,86
-0.20445,0,165,86
0.21986,0,166,86
0.1767,0,167,86
-0.24915,0,168,86
-0.2409,0,169,86
0.16796,0,170,86
0.40639,0,171,86
0.92668,0,172,86
-0.40331,0,173,86
-0.18633,0,174,86
-0.07367,0,175,86
0.062131,0,176,86
-0.024865,0,177,86
0.13756,0,178,86
0.73003,0,179,86
-0.05667,0,180,86
0.53941,0,181,86
-0.23346,0,182,86
-0.36803,0,183,86
-0.27053,0,184,86
-0.46063,0,185,86
-0.32373,0,186,86
-0.39614,0,187,86
0.32899,0,188,86
-0.29221,0,189,86
-0.38746,0,190,86
-0.14537,0,191,86
-0.49327,0,192,86
-0.35868,0,193,86
0.11459,0,194,86
0.63157,0,195,86
0.31228,0,196,86
0.031516,0,197,86
-0.045655,0,198,86
-0.03426,0,199,86
-0.30283,0,200,86
-0.28269,0,201,86
0.49893,0,202,86
0.43312,0,203,86
-0.14187,0,204,86
-0.64397,0,205,86
-0.75177,0,206,86
-0.46576,0,207,86
0.10223,0,208,86
0.40779,0,209,86
0.50337,0,210,86
0.25564,0,211,86
0.082378,0,212,86
-0.01721,0,213,86
-0.08946,0,214,86
0.5157,0,215,86
0.34244,0,216,86
0.31978,0,217,86
0.19582,0,218,86
-0.038513,0,219,86
-0.31727,0,220,86
-0.47958,0,221,86
0.34628,0,222,86
-0.028201,0,223,86
0.24056,0,224,86
0.44466,0,225,86
0.58608,0,226,86
0.046035,0,227,86
-0.56303,0,228,86
-0.19099,0,229,86
-0.56293,0,230,86
0.46607,0,231,86
0.3653,0,232,86
0.24853,0,233,86
-0.10659,0,234,86
0.10829,0,235,86
0.45625,0,236,86
-0.27324,0,237,86
0.25517,0,238,86
-0.43809,0,239,86
-0.42615,0,240,86
-0.010242,0,241,86
0.017616,0,242,86
0.054792,0,243,86
0.60177,0,244,86
-0.34723,0,245,86
-0.79391,0,246,86
-0.64485,0,247,86
-0.29661,0,248,86
-0.067272,0,249,86
0.47905,0,250,86
0.86012,0,251,86
-0.052984,0,252,86
-0.14217,0,253,86
-0.12782,0,254,86
-0.23973,0,255,86
-0.56823,0,0,86
-0.62881,0,1,86
-0.43756,0,2,86
0.1853,0,3,86
0.5894,0,4,86
0.79006,0,5,86
0.54275,0,6,86
-0.026769,0,7,86
-0.37675,0,8,86
-0.74382,0,9,86
-0.7814,0,10,86
-0.23358,0,11,86
0.28038,0,12,86
0.59323,0,13,86
0.21899,0,14,86
0.39432,0,15,86
0.14809,0,16,86
0.36235,0,17,86
0.44941,0,18,86
0.11634,0,19,86
-0.13394,0,20,86
-0.12185,0,21,86
0.37688,0,22,86
-0.1986,0,23,86
0.11414,0,24,86
0.49293,0,25,86
0.42095,0,26,86
-0.18621,0,27,86
-0.35366,0,28,86
0.15732,0,29,86
-0.71886,0,30,86
-0.35013,0,31,86
-0.70975,0,32,86
-0.5559,0,33,86
-0.49066,0,34,86
-0.046934,0,35,86
0.60618,0,36,86
-0.25605,0,37,86
0.37674,0,38,86
-0.043476,0,39,86
-0.10236,0,40,86
0.39186,0,41,86
0.47414,0,42,86
-0.10855,0,43,86
-0.57149,0,44,86
-0.014742,0,45,86
-0.55313,0,46,86
-0.12096,0,47,86
0.54924,0,48,86
0.32134,0,49,86
-0.14538,0,50,86
-0.18951,0,51,86
0.53467,0,52,86
0.18377,0,53,86
0.26408,0,54,86
0.40392,0,55,86
0.22912,0,56,86
-0.3689,0,57,86
-0.36282,0,58,86
-0.30167,0,59,86
0.12903,0,60,86
0.47513,0,61,86
0.29363,0,62,86
-0.16138,0,63,86
-0.38854,0,64,86
-0.40244,0,65,86
-0.38957,0,66,86
-0.15928,0,67,86
0.35318,0,68,86
0.39773,0,69,86
0.21897,0,70,86
-0.10773,0,71,86
-0.019402,0,72,86
-0.39187,0,73,86
-0.35823,0,74,86
0.22652,0,75,86
0.15394,0,76,86
-0.023413,0,77,86
-0.15486,0,78,86
0.42715,0,79,86
-0.012696,0,80,86
0.35141,0,81,86
0.37418,0,82,86
0.43244,0,83,86
0.38039,0,84,86
0.39599,0,85,86
0.60947,0,86,86
-0.5815,0,87,86
-0.22132,0,88,86
-0.26169,0,89,86
-0.39868,0,90,86
-0.69835,0,91,86
-0.40862,0,92,86
0.15799,0,93,86
-0.56068,0,94,86
0.12497,0,95,86
-0.35448,0,96,86
-0.44028,0,97,86
-0.018521,0,98,86
0.24484,0,99,86
0.38975,0,100,86
0.5291,0,101,86
0.94021,0,102,86
0.19915,0,103,86
0.14223,0,104,86
0.14733,0,105,86
-0.21556,0,106,86
-0.25632,0,107,86
-0.019777,0,108,86
0.253,0,109,86
-0.075691,0,110,86
-0.22728,0,111,86
-0.19872,0,112,86
-0.24115,0,113,86
-0.36903,0,114,86
-0.26948,0,115,86
-0.20389,0,116,86
-0.30887,0,117,86
-0.4426,0,118,86
-0.44746,0,119,86
-0.18007,0,120,86
-0.21011,0,121,86
0.072306,0,122,86
-0.043722,0,123,86
-0.027481,0,124,86
0.34669,0,125,86
0.40931,0,126,86
0.31917,0,127,86
-0.050352,0,128,86
0.56536,0,129,86
0.23363,0,130,86
0.19024,0,131,86
0.50165,0,132,86
0.47719,0,133,86
0.1268,0,134,86
-0.1214,0,135,86
0.19674,0,136,86
-0.23826,0,137,86
-0.046826,0,138,86
-0.088253,0,139,86
-0.27529,0,140,86
-0.415,0,141,86
-0.20177,0,142,86
0.77168,0,143,86
-0.23896,0,144,86
-0.12814,0,145,86
0.023577,0,146,86
0.37259,0,147,86
0.53432,0,148,86
0.468,0,149,86
0.48926,0,150,86
-0.34202,0,151,86
0.2691,0,152,86
-0.071154,0,153,86
-0.019177,0,154,86
0.022751,0,155,86
-0.21236,0,156,86
-0.41916,0,157,86
-0.65905,0,158,86
-0.23721,0,159,86
-0.93449,0,160,86
-0.48118,0,161,86
0.029934,0,162,86
0.021447,0,163,86
-0.010668,0,164,86
-0.14454,0,165,86
0.43224,0,166,86
-0.2542,0,167,86
-0.90299,0,168,86
-0.89506,0,169,86
-0.3152,0,170,86
0.17156,0,171,86
0.59377,0,172,86
0.47089,0,173,86
-0.037717,0,174,86
0.4099,0,175,86
0.8537,0,176,86
0.88529,0,177,86
0.54186,0,178,86
0.41315,0,179,86
0.088875,0,180,86
0.22389,0,181,86
0.39953,0,182,86
-0.2576,0,183,86
-0.48509,0,184,86
-0.5359,0,185,86
-0.19457,0,186,86
-0.41439,0,187,86
-0.13667,0,188,86
-0.69044,0,189,86
-1.3308,0,190,86
-0.7128,0,191,86
-0.053807,0,192,86
0.99105,0,193,86
0.50336,0,194,86
0.61808,0,195,86
0.56801,0,196,86
0.45499,0,197,86
-0.019829,0,198,86
0.024737,0,199,86
0.48382,0,200,86
-0.30123,0,201,86
0.11255,0,202,86
0.08248,0,203,86
0.24351,0,204,86
-0.071727,0,205,86
-0.15989,0,206,86
0.042178,0,207,86
-0.74705,0,208,86
-0.053665,0,209,86
-0.17558,0,210,86
0.085003,0,211,86
0.44544,0,212,86
0.32013,0,213,86
0.47248,0,214,86
0.45235,0,215,86
0.30591,0,216,86
-0.93946,0,217,86
-0.74018,0,218,86
-0.2331,0,219,86
0.12701,0,220,86
0.095093,0,221,86
-0.26253,0,222,86
0.13705,0,223,86
0.11662,0,224,86
0.4319,0,225,86
-0.049396,0,226,86
-0.74971,0,227,86
-0.93708,0,228,86
-0.37742,0,229,86
0.044734,0,230,86
0.36043,0,231,86
0.26541,0,232,86
0.10197,0,233,86
-0.067366,0,234,86
-0.30657,0,235,86
0.10655,0,236,86
0.4159,0,237,86
0.40219,0,238,86
0.083032,0,239,86
-0.30877,0,240,86
0.043982,0,241,86
0.24036,0,242,86
0.59152,0,243,86
0.21706,0,244,86
0.2285,0,245,86
0.14932,0,246,86
-0.12733,0,247,86
-0.25292,0,248,86
-0.15635,0,249,86
0.4477,0,250,86
-0.1505,0,251,86
-0.051286,0,252,86
-0.078456,0,253,86
0.08203,0,254,86
-0.18101,0,255,86
-0.071642,0,0,86
0.41499,0,1,86
-0.48168,0,2,86
-0.22584,0,3,86
-0.37818,0,4,86
-0.19808,0,5,86
-0.18467,0,6,86
0.059305,0,7,86
0.71719,0,8,86
-0.049286,0,9,86
0.16001,0,10,86
-0.38933,0,11,86
-0.41345,0,12,86
-0.045229,0,13,86
0.034217,0,14,86
0.30009,0,15,86
0.61692,0,16,86
-0.34318,0,17,86
-0.59937,0,18,86
-0.60288,0,19,86
-0.56946,0,20,86
0.064491,0,21,86
0.090853,0,22,86
0.34194,0,23,86
-0.017592,0,24,86
0.18561,0,25,86
0.16327,0,26,86
0.088494,0,27,86
0.22783,0,28,86
0.58865,0,29,86
0.18284,0,30,86
-0.31694,0,31,86
-0.46937,0,32,86
-0.032405,0,33,86
0.33614,0,34,86
0.65177,0,35,86
0.32131,0,36,86
-0.065724,0,37,86
-0.11338,0,38,86
-0.35953,0,39,86
-0.13139,0,40,86
-0.28702,0,41,86
0.058807,0,42,86
-0.072572,0,43,86
0.068002,0,44,86
0.14472,0,45,86
-0.49533,0,46,86
-0.40584,0,47,86
-0.4226,0,48,86
0.43022,0,49,86
0.14211,0,50,86
0.60919,0,51,86
0.58628,0,52,86
0.66186,0,53,86
0.32687,0,54,86
0.10296,0,55,86
0.58978,0,56,86
-0.34365,0,57,86
0.10514,0,58,86
0.10258,0,59,86
-0.088429,0,60,86
-0.42355,0,61,86
-0.40172,0,62,86
0.22375,0,63,86
-0.50556,0,64,86
-0.083817,0,65,86
-0.42602,0,66,86
-0.25676,0,67,86
0.064445,0,68,86
-0.043347,0,69,86
-0.10204,0,70,86
-0.025308,0,71,86
0.61834,0,72,86
-0.032135,0,73,86
-0.39441,0,74,86
-0.48038,0,75,86
-0.46371,0,76,86
-0.24035,0,77,86
0.01265,0,78,86
0.42629,0,79,86
0.20342,0,80,86
0.11539,0,81,86
-0.26184,0,82,86
-0.58576,0,83,86
-0.52604,0,84,86
-0.30542,0,85,86
0.12185,0,86,86
0.16539,0,87,86
0.41949,0,88,86
0.61497,0,89,86
0.4276,0,90,86
0.32884,0,91,86
-0.30434,0,92,86
-0.45333,0,93,86
0.11883,0,94,86
0.51939,0,95,86
0.44691,0,96,86
0.59453,0,97,86
0.14109,0,98,86
-0.03631,0,99,86
-0.030771,0,100,86
-0.089574,0,101,86
0.12346,0,102,86
-0.43371,0,103,86
-0.44834,0,104,86
-1.006,0,105,86
-0.37147,0,106,86
-0.016295,0,107,86
0.1588,0,108,86
-0.056225,0,109,86
0.068848,0,110,86
0.40049,0,111,86
-0.60763,0,112,86
-0.049534,0,113,86
0.24842,0,114,86
0.63037,0,115,86
0.6018,0,116,86
0.53924,0,117,86
0.77479,0,118,86
-0.087111,0,119,86
0.32148,0,120,86
-0.21521,0,121,86
-0.17003,0,122,86
-0.11684,0,123,86
-0.26048,0,124,86
-0.65795,0,125,86
0.24137,0,126,86
0.16699,0,127,86
0.084301,0,128,86
0.15555,0,129,86
-0.14928,0,130,86
-0.26484,0,131,86
0.75647,0,132,86
0.47865,0,133,86
0.41423,0,134,86
0.27775,0,135,86
-0.16152,0,136,86
-0.62969,0,137,86
-0.97195,0,138,86
-0.85672,0,139,86
-0.59287,0,140,86
-0.35796,0,141,86
-0.073794,0,142,86
0.1094,0,143,86
-0.049115,0,144,86
0.13513,0,145,86
0.23938,0,146,86
0.1433,0,147,86
-0.18016,0,148,86
-0.33353,0,149,86
-0.046108,0,150,86
-0.016329,0,151,86
0.38197,0,152,86
-0.010995,0,153,86
-0.15406,0,154,86
0.13671,0,155,86
0.25404,0,156,86
0.12509,0,157,86
-0.1932,0,158,86
0.082919,0,159,86
-0.74139,0,160,86
-0.32217,0,161,86
0.11502,0,162,86
0.54951,0,163,86
0.3336,0,164,86
0.37832,0,165,86
0.70905,0,166,86
-0.54205,0,167,86
-0.33351,0,168,86
-0.11474,0,169,86
0.089579,0,170,86
-0.04758,0,171,86
-0.4337,0,172,86
0.020687,0,173,86
-0.50784,0,174,86
0.23692,0,175,86
-0.15336,0,176,86
0.10947,0,177,86
0.086822,0,178,86
0.11606,0,179,86
0.085231,0,180,86
0.15424,0,181,86
0.91241,0,182,86
-0.22745,0,183,86
-0.23174,0,184,86
-0.33287,0,185,86
-0.31096,0,186,86
0.088975,0,187,86
0.20381,0,188,86
0.52001,0,189,86
0.11837,0,190,86
0.28235,0,191,86
0.22666,0,192,86
0.26715,0,193,86
-0.20399,0,194,86
-0.23544,0,195,86
-0.098596,0,196,86
-0.059669,0,197,86
-0.13684,0,198,86
-0.21836,0,199,86
-0.22215,0,200,86
-0.43039,0,201,86
0.057341,0,202,86
0.32669,0,203,86
0.22238,0,204,86
0.37755,0,205,86
0.18981,0,206,86
0.20473,0,207,86
-0.0172,0,208,86
-0.42132,0,209,86
-1.109,0,210,86
-0.45394,0,211,86
0.85347,0,212,86
1.05,0,213,86
1.0549,0,214,86
0.888,0,215,86
0.91087,0,216,86
-0.184,0,217,86
-0.41904,0,218,86
-0.37271,0,219,86
-0.5855,0,220,86
-0.62351,0,221,86
-0.44978,0,222,86
0.5098,0,223,86
-0.12894,0,224,86
0.22291,0,225,86
-0.052915,0,226,86
-0.22695,0,227,86
-0.55695,0,228,86
-0.4132,0,229,86
0.55863,0,230,86
0.1094,0,231,86
0.57703,0,232,86
-0.14029,0,233,86
-0.34046,0,234,86
-0.33043,0,235,86
-0.1219,0,236,86
-0.068877,0,237,86
-0.15522,0,238,86
0.42793,0,239,86
-0.23314,0,240,86
-0.27564,0,241,86
-0.41012,0,242,86
-0.59301,0,243,86
-0.85296,0,244,86
-0.70814,0,245,86
0.043654,0,246,86
-0.027198,0,247,86
-0.21326,0,248,86
-0.30045,0,249,86
-0.17093,0,250,86
0.40207,0,251,86
1.0311,0,252,86
0.96253,0,253,86
0.72032,0,254,86
0.55872,0,255,86
0.49859,0,0,86
0.3871,0,1,86
0.023925,0,2,86
-0.17001,0,3,86
-0.054079,0,4,86
0.038656,0,5,86
-0.044328,0,6,86
-0.46835,0,7,86
-0.35695,0,8,86
-0.48533,0,9,86
-0.094484,0,10,86
-0.15623,0,11,86
0.13833,0,12,86
0.17918,0,13,86
0.055693,0,14,86
0.11374,0,15,86
0.061251,0,16,86
0.15867,0,17,86
-0.87964,0,18,86
-0.77477,0,19,86
-0.19649,0,20,86
0.44023,0,21,86
0.61049,0,22,86
0.36316,0,23,86
0.48708,0,24,86
-0.48708,0,25,86
-0.15382,0,26,86
0.28007,0,27,86
0.21798,0,28,86
-0.29848,0,29,86
-0.39781,0,30,86
0.28323,0,31,86
-0.1333,0,32,86
0.84611,0,33,86
0.20922,0,34,86
0.15327,0,35,86
0.13527,0,36,86
0.19657,0,37,86
-0.33942,0,38,86
0.14542,0,39,86
-0.45432,0,40,86
-0.28328,0,41,86
-0.048114,0,42,86
-0.38547,0,43,86
-0.38436,0,44,86
-0.27256,0,45,86
0.16837,0,46,86
-0.13688,0,47,86
-0.51113,0,48,86
-0.98301,0,49,86
-0.84049,0,50,86
-0.4533,0,51,86
0.15658,0,52,86
0.33987,0,53,86
0.3635,0,54,86
0.27152,0,55,86
0.48562,0,56,86
0.38286,0,57,86
0.12185,0,58,86
0.1759,0,59,86
0.062353,0,60,86
0.014366,0,61,86
0.42132,0,62,86
0.51279,0,63,86
0.94792,0,64,86
0.33939,0,65,86
0.30644,0,66,86
-0.11369,0,67,86
0.086988,0,68,86
0.52034,0,69,86
0.12694,0,70,86
-0.026539,0,71,86
0.059254,0,72,86
0.47199,0,73,86
-0.42651,0,74,86
-0.36871,0,75,86
-0.080333,0,76,86
0.024178,0,77,86
-0.37437,0,78,86
-0.25739,0,79,86
0.53892,0,80,86
0.59117,0,81,86
0.50752,0,82,86
0.31038,0,83,86
-0.094298,0,84,86
-0.09859,0,85,86
0.40545,0,86,86
-0.13408,0,87,86
0.51719,0,88,86
0.23932,0,89,86
0.14891,0,90,86
-0.151,0,91,86
-0.62152,0,92,86
-0.42068,0,93,86
-0.24415,0,94,86
0.34845,0,95,86
-0.60787,0,96,86
-0.61665,0,97,86
-0.5013,0,98,86
-0.66469,0,99,86
-0.87359,0,100,86
-1.5293,0,101,86
-1.0953,0,102,86
-0.60303,0,103,86
0.16683,0,104,86
0.43912,0,105,86
0.41242,0,106,86
0.11086,0,107,86
0.29144,0,108,86
0.25771,0,109,86
0.35775,0,110,86
0.35782,0,111,86
0.17318,0,112,86
-0.36001,0,113,86
-0.21748,0,114,86
-0.028753,0,115,86
0.1459,0,116,86
0.12995,0,117,86
-0.10678,0,118,86
-0.24947,0,119,86
-0.54454,0,120,86
-0.025051,0,121,86
-0.29595,0,122,86
-0.24995,0,123,86
-0.091869,0,124,86
-0.30213,0,125,86
-0.25377,0,126,86
-0.13678,0,127,86
0.56022,0,128,86
0.26923,0,129,86
0.47456,0,130,86
0.33577,0,131,86
0.42838,0,132,86
0.10445,0,133,86
0.095704,0,134,86
0.60143,0,135,86
-0.58007,0,136,86
-0.3857,0,137,86
-0.29138,0,138,86
-0.12911,0,139,86
-0.073121,0,140,86
0.080683,0,141,86
0.71069,0,142,86
-0.30771,0,143,86
0.15842,0,144,86
-0.093329,0,145,86
0.57824,0,146,86
0.68865,0,147,86
0.44802,0,148,86
0.23063,0,149,86
0.97948,0,150,86
0.39122,0,151,86
0.24696,0,152,86
0.3244,0,153,86
0.11134,0,154,86
0.10582,0,155,86
0.15236,0,156,86
0.53242,0,157,86
-0.072814,0,158,86
-0.20197,0,159,86
-0.3071,0,160,86
-0.68808,0,161,86
-0.74763,0,162,86
-0.1601,0,163,86
0.21555,0,164,86
0.44654,0,165,86
0.36245,0,166,86
0.39094,0,167,86
0.10629,0,168,86
-0.29469,0,169,86
-0.54344,0,170,86
-0.064111,0,171,86
-0.14306,0,172,86
0.31231,0,173,86
0.097576,0,174,86
-0.032237,0,175,86
-0.45222,0,176,86
-0.44209,0,177,86
-0.36018,0,178,86
-0.067935,0,179,86
0.45887,0,180,86
0.5579,0,181,86
0.40734,0,182,86
0.022813,0,183,86
0.49273,0,184,86
-0.23506,0,185,86
-0.19273,0,186,86
-0.43415,0,187,86
-0.90787,0,188,86
-0.94067,0,189,86
-0.12548,0,190,86
0.95592,0,191,86
0.1841,0,192,86
0.34958,0,193,86
0.28547,0,194,86
0.39503,0,195,86
0.11058,0,196,86
-0.15357,0,197,86
0.10491,0,198,86
-0.56965,0,199,86
0.033537,0,200,86
-0.45765,0,201,86
-0.30504,0,202,86
-0.17136,0,203,86
-0.35597,0,204,86
-0.40296,0,205,86
-0.5052,0,206,86
0.14518,0,207,86
-0.46052,0,208,86
-0.21175,0,209,86
0.042168,0,210,86
0.029587,0,211,86
0.027947,0,212,86
0.096983,0,213,86
0.33653,0,214,86
-0.082041,0,215,86
-0.17056,0,216,86
-0.1494,0,217,86
-0.19718,0,218,86
-0.44094,0,219,86
-0.13536,0,220,86
0.063677,0,221,86
0.24408,0,222,86
0.52403,0,223,86
0.37692,0,224,86
0.27528,0,225,86
-0.27808,0,226,86
-0.24739,0,227,86
-0.045197,0,228,86
0.32759,0,229,86
0.68441,0,230,86
0.54962,0,231,86
0.31868,0,232,86
-0.14943,0,233,86
0.2054,0,234,86
0.13334,0,235,86
0.16584,0,236,86
0.54938,0,237,86
0.22407,0,238,86
-0.1633,0,239,86
-0.4626,0,240,86
0.17147,0,241,86
-0.2218,0,242,86
-0.31079,0,243,86
-0.43729,0,244,86
-0.45026,0,245,86
-0.48035,0,246,86
-0.38319,0,247,86
0.4937,0,248,86
-0.2423,0,249,86
0.47917,0,250,86
0.35245,0,251,86
-0.52548,0,252,86
-0.72755,0,253,86
-0.086881,0,254,86
-0.66997,0,255,86
0.11768,0,0,86
-0.091506,0,1,86
0.30879,0,2,86
0.46751,0,3,86
0.034559,0,4,86
-0.18175,0,5,86
-0.16613,0,6,86
0.29763,0,7,86
-0.39826,0,8,86
-0.12665,0,9,86
-0.21394,0,10,86
-0.5506,0,11,86
-0.48458,0,12,86
-0.37567,0,13,86
0.37701,0,14,86
0.49567,0,15,86
0.37922,0,16,86
0.48977,0,17,86
0.11641,0,18,86
-0.28602,0,19,86
0.038301,0,20,86
0.25305,0,21,86
0.54962,0,22,86
0.5703,0,23,86
0.29036,0,24,86
0.23384,0,25,86
0.30574,0,26,86
0.63231,0,27,86
0.64665,0,28,86
0.3655,0,29,86
0.27546,0,30,86
-0.43997,0,31,86
-0.68796,0,32,86
-0.68289,0,33,86
0.14438,0,34,86
0.20112,0,35,86
0.58976,0,36,86
0.73325,0,37,86
0.30197,0,38,86
-0.093692,0,39,86
-0.45609,0,40,86
0.027325,0,41,86
-0.14901,0,42,86
0.21082,0,43,86
0.43018,0,44,86
0.29408,0,45,86
0.049261,0,46,86
-0.12072,0,47,86
0.070938,0,48,86
-1.0453,0,49,86
-0.48001,0,50,86
-0.24771,0,51,86
0.26999,0,52,86
0.08767,0,53,86
-0.065877,0,54,86
0.19656,0,55,86
-0.48859,0,56,86
0.074728,0,57,86
-0.34629,0,58,86
-0.32691,0,59,86
-0.28589,0,60,86
-0.27549,0,61,86
0.083346,0,62,86
-0.095981,0,63,86
0.079174,0,64,86
-0.5561,0,65,86
-0.52169,0,66,86
-0.041535,0,67,86
-0.12557,0,68,86
-0.27451,0,69,86
-0.25934,0,70,86
0.29141,0,71,86
-0.39145,0,72,86
-0.97044,0,73,86
-0.91628,0,74,86
-0.39388,0,75,86
0.39777,0,76,86
0.79218,0,77,86
0.70999,0,78,86
0.02913,0,79,86
-0.1846,0,80,86
0.23168,0,81,86
0.083098,0,82,86
0.052384,0,83,86
0.011395,0,84,86
0.091677,0,85,86
0.33521,0,86,86
0.4761,0,87,86
0.76684,0,88,86
0.38941,0,89,86
0.54239,0,90,86
0.28584,0,91,86
0.48052,0,92,86
0.66546,0,93,86
0.30639,0,94,86
0.16872,0,95,86
-0.06942,0,96,86
0.40884,0,97,86
-0.11627,0,98,86
0.072327,0,99,86
0.12079,0,100,86
0.18347,0,101,86
-0.043932,0,102,86
-0.45138,0,103,86
-0.77335,0,104,86
-0.34543,0,105,86
-0.14446,0,106,86
-0.20265,0,107,86
-0.40126,0,108,86
0.388,0,109,86
-0.070473,0,110,86
0.43905,0,111,86
0.02506,0,112,86
-0.4202,0,113,86
-0.51947,0,114,86
-0.57375,0,115,86
-0.74796,0,116,86
-0.96296,0,117,86
0.064211,0,118,86
0.30866,0,119,86
0.30244,0,120,86
0.11102,0,121,86
0.020808,0,122,86
0.059263,0,123,86
0.16926,0,124,86
-0.3343,0,125,86
-0.48547,0,126,86
0.19382,0,127,86
0.37453,0,128,86
-0.20328,0,129,86
-0.36551,0,130,86
-0.23399,0,131,86
0.039072,0,132,86
0.033429,0,133,86
0.18374,0,134,86
0.13469,0,135,86
-0.36227,0,136,86
-0.43666,0,137,86
-0.28313,0,138,86
0.02514,0,139,86
0.5017,0,140,86
0.43796,0,141,86
0.62227,0,142,86
0.15531,0,143,86
0.15486,0,144,86
-0.32635,0,145,86
-0.064678,0,146,86
0.49417,0,147,86
0.42641,0,148,86
0.40928,0,149,86
-0.11941,0,150,86
0.12509,0,151,86
-0.43241,0,152,86
-0.23867,0,153,86
-0.23851,0,154,86
-0.14881,0,155,86
-0.089787,0,156,86
0.44568,0,157,86
1.3793,0,158,86
0.42612,0,159,86
0.1576,0,160,86
-0.23423,0,161,86
-0.22709,0,162,86
-0.16471,0,163,86
-0.0126,0,164,86
0.40589,0,165,86
-0.48842,0,166,86
0.1246,0,167,86
-0.12429,0,168,86
-0.018826,0,169,86
-0.24754,0,170,86
-0.4466,0,171,86
-0.31286,0,172,86
-0.29994,0,173,86
0.50856,0,174,86
0.10231,0,175,86
0.24778,0,176,86
-0.13662,0,177,86
-0.33277,0,178,86
-0.27168,0,179,86
-0.070726,0,180,86
0.64917,0,181,86
0.21247,0,182,86
-0.41839,0,183,86
-0.77644,0,184,86
-0.38938,0,185,86
0.25088,0,186,86
0.53827,0,187,86
0.34752,0,188,86
0.090653,0,189,86
0.16597,0,190,86
0.25202,0,191,86
0.21839,0,192,86
-0.2208,0,193,86
-0.26496,0,194,86
-0.037645,0,195,86
0.25795,0,196,86
0.28419,0,197,86
-0.040117,0,198,86
0.061782,0,199,86
-0.046323,0,200,86
0.14342,0,201,86
-0.26278,0,202,86
-0.3012,0,203,86
-0.043497,0,204,86
-0.22808,0,205,86
-0.59789,0,206,86
-1.1457,0,207,86
-0.24595,0,208,86
-0.1372,0,209,86
0.51772,0,210,86
0.80816,0,211,86
0.69854,0,212,86
0.11724,0,213,86
-0.044199,0,214,86
0.66214,0,215,86
0.16633,0,216,86
0.59366,0,217,86
0.095231,0,218,86
-0.25265,0,219,86
-0.39498,0,220,86
0.7705,0,221,86
0.15662,0,222,86
0.55618,0,223,86
-0.2209,0,224,86
-0.64326,0,225,86
-0.73418,0,226,86
-0.33395,0,227,86
-0.10806,0,228,86
-0.059947,0,229,86
0.58064,0,230,86
-0.22303,0,231,86
-0.18414,0,232,86
-0.23592,0,233,86
-0.34175,0,234,86
-0.54145,0,235,86
-0.48644,0,236,86
-0.038921,0,237,86
-0.23117,0,238,86
-0.028408,0,239,86
0.15156,0,240,86
0.41318,0,241,86
0.060146,0,242,86
-0.29158,0,243,86
-0.40145,0,244,86
-0.37086,0,245,86
-0.43057,0,246,86
-0.40433,0,247,86
-0.66661,0,248,86
-0.61561,0,249,86
-0.32166,0,250,86
0.12039,0,251,86
0.58652,0,252,86
0.54524,0,253,86
0.56796,0,254,86
0.28932,0,255,86
0.92412,0,0,86
0.57918,0,1,86
0.17422,0,2,86
0.32515,0,3,86
0.59286,0,4,86
0.15922,0,5,86
0.69666,0,6,86
0.14084,0,7,86
0.28952,0,8,86
-0.015734,0,9,86
-0.015266,0,10,86
-0.10357,0,11,86
-0.089962,0,12,86
0.78069,0,13,86
-0.024047,0,14,86
-0.11162,0,15,86
-0.42085,0,16,86
-0.23446,0,17,86
-0.054231,0,18,86
-0.044296,0,19,86
0.37984,0,20,86
-0.63339,0,21,86
-0.2634,0,22,86
-0.43301,0,23,86
0.080846,0,24,86
-0.037379,0,25,86
-0.033425,0,26,86
0.093312,0,27,86
0.54351,0,28,86
-0.42015,0,29,86
-0.59325,0,30,86
-0.25956,0,31,86
0.087995,0,32,86
-0.022015,0,33,86
0.024916,0,34,86
0.47385,0,35,86
-0.086939,0,36,86
-0.39793,0,37,86
-0.22422,0,38,86
-0.03052,0,39,86
-0.072176,0,40,86
0.13665,0,41,86
0.25802,0,42,86
0.093356,0,43,86
0.056748,0,44,86
-0.04689,0,45,86
-0.26564,0,46,86
-0.54843,0,47,86
-0.15522,0,48,86
0.059882,0,49,86
-0.10074,0,50,86
0.044751,0,51,86
-0.089312,0,52,86
-0.24291,0,53,86
-0.40558,0,54,86
-0.19254,0,55,86
-0.088947,0,56,86
0.37541,0,57,86
0.40318,0,58,86
0.099196,0,59,86
-0.067348,0,60,86
-0.29952,0,61,86
0.21336,0,62,86
-0.28841,0,63,86
0.1659,0,64,86
0.5133,0,65,86
0.46827,0,66,86
0.31851,0,67,86
0.39719,0,68,86
1.1602,0,69,86
0.21785,0,70,86
0.12019,0,71,86
-0.18068,0,72,86
-0.26137,0,73,86
-0.53647,0,74,86
-0.2314,0,75,86
0.22868,0,76,86
-0.53648,0,77,86
0.10197,0,78,86
-0.15072,0,79,86
-0.26051,0,80,86
-0.013224,0,81,86
-0.10554,0,82,86
-0.12997,0,83,86
0.6073,0,84,86
0.13302,0,85,86
0.12774,0,86,86
-0.11788,0,87,86
-0.33754,0,88,86
-0.2279,0,89,86
0.13009,0,90,86
0.51235,0,91,86
0.07272,0,92,86
-0.019412,0,93,86
0.32667,0,94,86
0.40163,0,95,86
-0.01735,0,96,86
-0.20227,0,97,86
-0.40857,0,98,86
-0.46581,0,99,86
-0.30337,0,100,86
-0.16134,0,101,86
-0.39987,0,102,86
-0.67957,0,103,86
-0.46674,0,104,86
-0.065344,0,105,86
0.23839,0,106,86
0.71899,0,107,86
0.41467,0,108,86
0.23841,0,109,86
0.094441,0,110,86
0.36656,0,111,86
0.054399,0,112,86
0.15133,0,113,86
-0.092875,0,114,86
0.43806,0,115,86
-0.13678,0,116,86
-0.23748,0,117,86
-0.28321,0,118,86
-0.3666,0,119,86
-0.46278,0,120,86
-0.041039,0,121,86
0.83758,0,122,86
-0.28787,0,123,86
0.053964,0,124,86
-0.18172,0,125,86
0.033989,0,126,86
0.16101,0,127,86
0.24593,0,128,86
0.5641,0,129,86
-0.2216,0,130,86
0.17141,0,131,86
-0.50127,0,132,86
-0.4293,0,133,86
-0.47025,0,134,86
-0.49973,0,135,86
-0.071839,0,136,86
0.32893,0,137,86
1.2124,0,138,86
0.27909,0,139,86
-0.3753,0,140,86
-0.50531,0,141,86
-0.41738,0,142,86
-0.28723,0,143,86
0.20164,0,144,86
0.94011,0,145,86
0.36361,0,146,86
-0.4854,0,147,86
-0.89069,0,148,86
-0.89359,0,149,86
0.01612,0,150,86
0.72533,0,151,86
0.92221,0,152,86
0.41541,0,153,86
0.038487,0,154,86
-0.055742,0,155,86
-0.39445,0,156,86
-0.35694,0,157,86
-0.29361,0,158,86
-0.24883,0,159,86
0.23892,0,160,86
0.25074,0,161,86
0.34253,0,162,86
-0.017087,0,163,86
0.024815,0,164,86
-0.27016,0,165,86
-0.012993,0,166,86
0.5047,0,167,86
0.25855,0,168,86
0.069432,0,169,86
-0.21607,0,170,86
0.23847,0,171,86
-0.26994,0,172,86
-0.013743,0,173,86
-0.21199,0,174,86
-0.48,0,175,86
-0.088136,0,176,86
0.30963,0,177,86
1.0195,0,178,86
0.14445,0,179,86
0.079291,0,180,86
0.2971,0,181,86
0.24272,0,182,86
0.086129,0,183,86
0.42172,0,184,86
-0.25256,0,185,86
0.21296,0,186,86
-0.32802,0,187,86
-0.26252,0,188,86
-0.67056,0,189,86
-0.78986,0,190,86
-0.36299,0,191,86
0.74367,0,192,86
-0.011265,0,193,86
-0.076509,0,194,86
-0.18959,0,195,86
-0.020513,0,196,86
0.063419,0,197,86
0.11966,0,198,86
0.31673,0,199,86
-0.39704,0,200,86
-0.50501,0,201,86
-0.31436,0,202,86
-0.38997,0,203,86
-0.80607,0,204,86
-0.40756,0,205,86
0.23252,0,206,86
0.69924,0,207,86
0.5354,0,208,86
0.32979,0,209,86
0.42357,0,210,86
0.32672,0,211,86
0.41662,0,212,86
-0.018077,0,213,86
-0.48507,0,214,86
-0.55781,0,215,86
-0.41979,0,216,86
0.073007,0,217,86
0.16445,0,218,86
0.45341,0,219,86
0.16872,0,220,86
0.30624,0,221,86
0.3128,0,222,86
0.1387,0,223,86
0.096396,0,224,86
-0.25698,0,225,86
0.11523,0,226,86
-0.58013,0,227,86
-0.41493,0,228,86
-0.34787,0,229,86
-0.099199,0,230,86
0.042808,0,231,86
-0.029931,0,232,86
0.46244,0,233,86
-0.19781,0,234,86
0.4753,0,235,86
0.45521,0,236,86
0.49544,0,237,86
0.15247,0,238,86
-0.14617,0,239,86
-0.69789,0,240,86
0.12921,0,241,86
0.14554,0,242,86
0.3567,0,243,86
0.012074,0,244,86
-0.54361,0,245,86
-0.44029,0,246,86
0.05659,0,247,86
1.0592,0,248,86
0.047607,0,249,86
-0.29849,0,250,86
-0.24157,0,251,86
0.19688,0,252,86
0.21596,0,253,86
0.19428,0,254,86
0.48224,0,255,86
-0.12964,0,0,86
-0.61151,0,1,86
-0.91173,0,2,86
-0.61037,0,3,86
-0.3262,0,4,86
0.25964,0,5,86
0.48883,0,6,86
0.20702,0,7,86
-0.36654,0,8,86
-0.52975,0,9,86
-0.47585,0,10,86
-0.75177,0,11,86
-0.14162,0,12,86
0.14944,0,13,86
0.34755,0,14,86
0.22524,0,15,86
0.16017,0,16,86
0.23205,0,17,86
-0.025587,0,18,86
0.25846,0,19,86
-0.012905,0,20,86
0.076144,0,21,86
0.25905,0,22,86
0.40983,0,23,86
0.29844,0,24,86
-0.132,0,25,86
0.14786,0,26,86
0.048012,0,27,86
0.56546,0,28,86
0.5789,0,29,86
0.42942,0,30,86
0.31063,0,31,86
0.1209,0,32,86
0.57875,0,33,86
-0.68435,0,34,86
-0.51664,0,35,86
-0.64992,0,36,86
-0.27441,0,37,86
0.09013,0,38,86
0.23614,0,39,86
-0.83581,0,40,86
-0.21102,0,41,86
-0.68573,0,42,86
-0.29096,0,43,86
-0.030749,0,44,86
0.082741,0,45,86
0.17086,0,46,86
0.067484,0,47,86
0.75241,0,48,86
0.2563,0,49,86
0.21252,0,50,86
-0.065541,0,51,86
-0.16646,0,52,86
-0.087756,0,53,86
0.51009,0,54,86
0.098858,0,55,86
-0.43784,0,56,86
-0.54625,0,57,86
-0.46279,0,58,86
-0.33102,0,59,86
-0.13174,0,60,86
-0.1936,0,61,86
-0.26021,0,62,86
-0.31865,0,63,86
-0.032781,0,64,86
0.29836,0,65,86
0.03955,0,66,86
0.063355,0,67,86
0.063049,0,68,86
0.2169,0,69,86
0.39932,0,70,86
0.28373,0,71,86
0.45797,0,72,86
0.12541,0,73,86
0.53493,0,74,86
0.14596,0,75,86
-0.013912,0,76,86
0.04225,0,77,86
0.14692,0,78,86
-0.09524,0,79,86
0.3657,0,80,86
-0.33797,0,81,86
-0.12716,0,82,86
0.093599,0,83,86
0.22044,0,84,86
0.057163,0,85,86
-0.011825,0,86,86
0.20592,0,87,86
-1.0372,0,88,86
-0.35102,0,89,86
-0.035131,0,90,86
0.10012,0,91,86
-0.12013,0,92,86
-0.18479,0,93,86
0.67978,0,94,86
0.66794,0,95,86
1.2091,0,96,86
0.45033,0,97,86
-0.15384,0,98,86
-0.69654,0,99,86
-1.1596,0,100,86
-0.84293,0,101,86
-0.086804,0,102,86
1.1075,0,103,86
0.47625,0,104,86
0.17816,0,105,86
-0.17936,0,106,86
-0.25673,0,107,86
-0.53945,0,108,86
-0.54299,0,109,86
0.030736,0,110,86
-0.037595,0,111,86
-0.29682,0,112,86
-0.46278,0,113,86
-0.43856,0,114,86
-0.53956,0,115,86
0.056305,0,116,86
0.25829,0,117,86
0.34895,0,118,86
0.11752,0,119,86
0.038387,0,120,86
-0.17733,0,121,86
0.01813,0,122,86
0.40607,0,123,86
0.51516,0,124,86
0.053588,0,125,86
-0.42333,0,126,86
-0.22197,0,127,86
-0.2718,0,128,86
0.12741,0,129,86
0.16587,0,130,86
0.4052,0,131,86
0.79131,0,132,86
0.59074,0,133,86
0.40243,0,134,86
0.071419,0,135,86
0.47678,0,136,86
-0.77973,0,137,86
-0.74037,0,138,86
-0.43074,0,139,86
0.084581,0,140,86
0.024859,0,141,86
0.62614,0,142,86
-0.16141,0,143,86
0.32146,0,144,86
-0.027986,0,145,86
-0.33302,0,146,86
-0.51152,0,147,86
-0.34599,0,148,86
0.32937,0,149,86
-0.24683,0,150,86
0.35074,0,151,86
0.14032,0,152,86
-0.052106,0,153,86
-0.23683,0,154,86
-0.39348,0,155,86
-0.36821,0,156,86
-0.28791,0,157,86
0.53571,0,158,86
-0.24479,0,159,86
-0.43149,0,160,86
-0.45075,0,161,86
0.34056,0,162,86
0.24651,0,163,86
0.49412,0,164,86
0.062968,0,165,86
0.45663,0,166,86
0.47115,0,167,86
0.47275,0,168,86
0.64005,0,169,86
0.58439,0,170,86
0.45189,0,171,86
0.047997,0,172,86
-0.29517,0,173,86
-0.37397,0,174,86
-0.68219,0,175,86
-0.4477,0,176,86
0.030703,0,177,86
-0.28325,0,178,86
-0.29893,0,179,86
0.20475,0,180,86
-0.34745,0,181,86
-0.6343,0,182,86
-0.51266,0,183,86
0.6638,0,184,86
-0.082806,0,185,86
-0.18497,0,186,86
-0.46124,0,187,86
0.73709,0,188,86
0.66975,0,189,86
0.53014,0,190,86
0.5901,0,191,86
0.16653,0,192,86
-0.19506,0,193,86
-0.44769,0,194,86
-0.16644,0,195,86
-0.7009,0,196,86
0.05584,0,197,86
0.44321,0,198,86
0.61725,0,199,86
0.25141,0,200,86
-0.42946,0,201,86
-0.59721,0,202,86
-1.3836,0,203,86
-0.47428,0,204,86
0.16517,0,205,86
0.55035,0,206,86
0.33281,0,207,86
0.25379,0,208,86
0.7327,0,209,86
-0.049744,0,210,86
0.10498,0,211,86
-0.48405,0,212,86
-0.49903,0,213,86
-0.37546,0,214,86
-0.28304,0,215,86
-0.096774,0,216,86
0.19946,0,217,86
1.1725,0,218,86
0.27494,0,219,86
-0.12787,0,220,86
-0.14751,0,221,86
-0.19879,0,222,86
-0.37536,0,223,86
-0.019627,0,224,86
0.45206,0,225,86
0.017131,0,226,86
-0.26274,0,227,86
-0.18063,0,228,86
-0.19381,0,229,86
-0.44023,0,230,86
-0.35819,0,231,86
-0.41533,0,232,86
-0.44475,0,233,86
-0.36673,0,234,86
0.016134,0,235,86
0.35181,0,236,86
0.17822,0,237,86
0.24954,0,238,86
0.1866,0,239,86
0.077202,0,240,86
0.42761,0,241,86
0.33697,0,242,86
0.46913,0,243,86
0.25629,0,244,86
0.63255,0,245,86
0.29046,0,246,86
0.15637,0,247,86
0.18707,0,248,86
0.062194,0,249,86
0.085276,0,250,86
-0.22977,0,251,86
0.093089,0,252,86
-0.53434,0,253,86
-0.37588,0,254,86
-0.076272,0,255,86
-0.35505,0,0,86
-0.57802,0,1,86
-0.28581,0,2,86
0.76767,0,3,86
0.47596,0,4,86
1.1784,0,5,86
0.59344,0,6,86
0.076878,0,7,86
-0.22592,0,8,86
-0.2742,0,9,86
0.20139,0,10,86
-0.30413,0,11,86
0.95604,0,12,86
0.34747,0,13,86
-0.30831,0,14,86
-0.45347,0,15,86
-0.34408,0,16,86
-0.072608,0,17,86
0.43113,0,18,86
-0.43955,0,19,86
-0.46924,0,20,86
-0.40125,0,21,86
-0.41366,0,22,86
-0.398,0,23,86
-0.24964,0,24,86
0.0881,0,25,86
-0.30024,0,26,86
-0.13264,0,27,86
-0.101,0,28,86
-0.18714,0,29,86
-0.49611,0,30,86
-0.2957,0,31,86
-0.68877,0,32,86
-0.71045,0,33,86
-0.16208,0,34,86
0.31557,0,35,86
0.43738,0,36,86
0.70198,0,37,86
0.70279,0,38,86
0.6656,0,39,86
0.3993,0,40,86
-0.1349,0,41,86
-0.49254,0,42,86
-0.65966,0,43,86
0.059307,0,44,86
0.10906,0,45,86
0.58333,0,46,86
0.62052,0,47,86
0.32395,0,48,86
0.15689,0,49,86
0.14227,0,50,86
0.58131,0,51,86
-0.093258,0,52,86
-0.22062,0,53,86
-0.35293,0,54,86
-0.5405,0,55,86
-0.71815,0,56,86
-0.58316,0,57,86
0.46543,0,58,86
0.039721,0,59,86
0.5965,0,60,86
0.56938,0,61,86
0.64776,0,62,86
0.20003,0,63,86
-0.4426,0,64,86
-0.12203,0,65,86
-0.39429,0,66,86
0.37317,0,67,86
0.12371,0,68,86
0.085611,0,69,86
-0.39135,0,70,86
-0.40295,0,71,86
-0.041853,0,72,86
0.15762,0,73,86
-0.12507,0,74,86
-0.29042,0,75,86
-0.090954,0,76,86
0.56104,0,77,86
0.22915,0,78,86
-0.049985,0,79,86
-0.23313,0,80,86
-0.42845,0,81,86
-0.54984,0,82,86
-0.075955,0,83,86
0.18937,0,84,86
0.34126,0,85,86
0.29192,0,86,86
0.019631,0,87,86
-0.070631,0,88,86
-0.30708,0,89,86
-0.19641,0,90,86
0.082992,0,91,86
0.2064,0,92,86
0.32521,0,93,86
0.17653,0,94,86
-0.063764,0,95,86
-0.56741,0,96,86
-0.18254,0,97,86
0.022204,0,98,86
0.48132,0,99,86
0.31304,0,100,86
-0.1293,0,101,86
-0.45862,0,102,86
-0.68785,0,103,86
0.081812,0,104,86
-0.054333,0,105,86
0.48217,0,106,86
0.52336,0,107,86
0.6707,0,108,86
0.38871,0,109,86
0.15069,0,110,86
0.5185,0,111,86
-0.58611,0,112,86
-0.52772,0,113,86
-0.52545,0,114,86
-0.15023,0,115,86
0.067796,0,116,86
0.33369,0,117,86
0.91129,0,118,86
-0.10082,0,119,86
-0.0269,0,120,86
-0.34926,0,121,86
-0.5214,0,122,86
-1.2111,0,123,86
-0.91858,0,124,86
-0.029199,0,125,86
0.71708,0,126,86
1.5563,0,127,86
0.47912,0,128,86
0.18006,0,129,86
-0.023655,0,130,86
-0.19988,0,131,86
-0.31703,0,132,86
0.23209,0,133,86
0.099867,0,134,86
0.2582,0,135,86
0.13864,0,136,86
-0.01668,0,137,86
-0.25302,0,138,86
-0.23625,0,139,86
-0.39859,0,140,86
-0.42585,0,141,86
-0.40709,0,142,86
-0.23302,0,143,86
-0.16375,0,144,86
-0.36372,0,145,86
0.084593,0,146,86
-0.074851,0,147,86
-0.06504,0,148,86
0.18061,0,149,86
0.20211,0,150,86
0.39915,0,151,86
0.21517,0,152,86
0.33293,0,153,86
-0.021661,0,154,86
0.047243,0,155,86
-0.12436,0,156,86
-0.30363,0,157,86
-0.25964,0,158,86
-0.21698,0,159,86
0.67587,0,160,86
0.36986,0,161,86
0.47333,0,162,86
0.10275,0,163,86
-0.0558,0,164,86
0.092957,0,165,86
0.17064,0,166,86
0.71039,0,167,86
-0.02542,0,168,86
0.28348,0,169,86
-0.22666,0,170,86
-0.81487,0,171,86
-1.1529,0,172,86
-0.49201,0,173,86
0.76979,0,174,86
0.34815,0,175,86
0.8089,0,176,86
-0.12822,0,177,86
-0.31629,0,178,86
-0.34877,0,179,86
-0.32141,0,180,86
-0.52686,0,181,86
-0.46642,0,182,86
0.39392,0,183,86
-0.18393,0,184,86
-0.068183,0,185,86
-0.123,0,186,86
-0.03102,0,187,86
-0.1156,0,188,86
0.031966,0,189,86
0.59718,0,190,86
0.53147,0,191,86
0.026608,0,192,86
-0.21306,0,193,86
-0.31016,0,194,86
-0.30909,0,195,86
0.038907,0,196,86
0.27205,0,197,86
0.52676,0,198,86
-0.011535,0,199,86
-0.36808,0,200,86
-0.046209,0,201,86
-0.014198,0,202,86
0.40662,0,203,86
0.37274,0,204,86
0.14603,0,205,86
0.074314,0,206,86
0.14501,0,207,86
-0.061347,0,208,86
-0.49242,0,209,86
-0.11377,0,210,86
-0.23568,0,211,86
0.035388,0,212,86
0.072586,0,213,86
-0.016662,0,214,86
0.15839,0,215,86
-0.014982,0,216,86
-0.11308,0,217,86
-0.85798,0,218,86
-0.21878,0,219,86
0.61884,0,220,86
1.2105,0,221,86
0.88048,0,222,86
0.3697,0,223,86
0.47357,0,224,86
-0.45829,0,225,86
-0.037613,0,226,86
-0.072362,0,227,86
-0.79179,0,228,86
-0.91651,0,229,86
-0.045199,0,230,86
-0.031533,0,231,86
0.74694,0,232,86
0.11889,0,233,86
-0.10479,0,234,86
0.017621,0,235,86
-0.070826,0,236,86
-0.10971,0,237,86
-0.22485,0,238,86
0.24678,0,239,86
-0.72368,0,240,86
-0.71336,0,241,86
-0.3875,0,242,86
-0.34189,0,243,86
-0.43826,0,244,86
-0.52629,0,245,86
-0.066442,0,246,86
-0.30048,0,247,86
-0.034071,0,248,86
0.10804,0,249,86
0.24027,0,250,86
0.09405,0,251,86
0.28428,0,252,86
0.33172,0,253,86
0.28945,0,254,86
0.097402,0,255,86
-0.031537,0,0,86
0.090219,0,1,86
0.12333,0,2,86
0.19157,0,3,86
-0.023311,0,4,86
0.16393,0,5,86
0.47711,0,6,86
0.32578,0,7,86
0.21604,0,8,86
-0.049086,0,9,86
0.38635,0,10,86
0.079232,0,11,86
-0.21343,0,12,86
-0.489,0,13,86
-0.47501,0,14,86
-0.083848,0,15,86
0.22723,0,16,86
0.76188,0,17,86
-0.032747,0,18,86
0.21415,0,19,86
0.46987,0,20,86
0.89752,0,21,86
0.83026,0,22,86
0.63502,0,23,86
0.85832,0,24,86
-0.876,0,25,86
-0.65006,0,26,86
-0.35796,0,27,86
0.58212,0,28,86
0.25003,0,29,86
-0.29842,0,30,86
-1.0955,0,31,86
0.057104,0,32,86
-0.059434,0,33,86
0.14125,0,34,86
0.18376,0,35,86
-0.44848,0,36,86
-1.0986,0,37,86
-0.97106,0,38,86
0.39467,0,39,86
0.066482,0,40,86
0.222,0,41,86
0.47365,0,42,86
0.26574,0,43,86
0.1132,0,44,86
0.034804,0,45,86
0.23832,0,46,86
-0.17462,0,47,86
-0.36934,0,48,86
-0.49137,0,49,86
-0.43062,0,50,86
-0.46548,0,51,86
-0.46664,0,52,86
-0.65456,0,53,86
-0.61835,0,54,86
-0.43779,0,55,86
-0.25153,0,56,86
-0.059012,0,57,86
-0.43071,0,58,86
-0.20078,0,59,86
-0.32373,0,60,86
-0.39619,0,61,86
0.055511,0,62,86
0.31265,0,63,86
0.79836,0,64,86
0.69215,0,65,86
0.78436,0,66,86
0.06487,0,67,86
-0.22844,0,68,86
-0.023536,0,69,86
0.25728,0,70,86
0.13775,0,71,86
0.11611,0,72,86
0.71602,0,73,86
0.20489,0,74,86
0.32331,0,75,86
0.39469,0,76,86
0.014912,0,77,86
-0.70811,0,78,86
-0.58084,0,79,86
0.49288,0,80,86
0.11501,0,81,86
0.82972,0,82,86
0.81345,0,83,86
0.76162,0,84,86
0.39532,0,85,86
0.10104,0,86,86
0.50703,0,87,86
-0.43434,0,88,86
0.25242,0,89,86
-0.16164,0,90,86
-0.28296,0,91,86
-0.055953,0,92,86
-0.11496,0,93,86
-0.31333,0,94,86
-0.30007,0,95,86
0.57803,0,96,86
0.26415,0,97,86
0.41862,0,98,86
0.52672,0,99,86
-0.035137,0,100,86
-0.6409,0,101,86
-1.0755,0,102,86
-0.52986,0,103,86
-0.56311,0,104,86
-0.21157,0,105,86
-0.28498,0,106,86
-0.26793,0,107,86
-0.51801,0,108,86
-0.016556,0,109,86
0.42435,0,110,86
0.44418,0,111,86
0.17295,0,112,86
0.013908,0,113,86
0.070927,0,114,86
-0.14923,0,115,86
-0.15551,0,116,86
-0.38091,0,117,86
-0.47209,0,118,86
-0.046068,0,119,86
0.28395,0,120,86
0.37767,0,121,86
-0.10353,0,122,86
0.063967,0,123,86
-0.53632,0,124,86
-0.61525,0,125,86
-0.16756,0,126,86
0.20216,0,127,86
-0.088568,0,128,86
-0.35823,0,129,86
0.038656,0,130,86
-0.73743,0,131,86
-0.27548,0,132,86
0.3752,0,133,86
0.48969,0,134,86
0.82813,0,135,86
1.7338,0,136,86
0.61008,0,137,86
0.40078,0,138,86
-0.052667,0,139,86
0.035184,0,140,86
-0.11302,0,141,86
-0.07485,0,142,86
-0.73938,0,143,86
-0.042377,0,144,86
-0.099134,0,145,86
0.030165,0,146,86
-0.34166,0,147,86
-0.65003,0,148,86
-0.66875,0,149,86
0.1611,0,150,86
-0.21665,0,151,86
0.011774,0,152,86
0.31927,0,153,86
0.17208,0,154,86
0.12728,0,155,86
0.33452,0,156,86
0.69757,0,157,86
-0.12818,0,158,86
-0.65613,0,159,86
-0.59182,0,160,86
-0.22946,0,161,86
-0.099678,0,162,86
0.1837,0,163,86
0.3597,0,164,86
0.01937,0,165,86
-0.34078,0,166,86
-0.091932,0,167,86
0.36941,0,168,86
0.33261,0,169,86
0.33501,0,170,86
0.31984,0,171,86
0.46528,0,172,86
0.56134,0,173,86
0.44722,0,174,86
0.095218,0,175,86
-0.56254,0,176,86
-0.49673,0,177,86
-0.737,0,178,86
-0.17881,0,179,86
0.47955,0,180,86
0.50606,0,181,86
0.21067,0,182,86
-0.11298,0,183,86
0.2466,0,184,86
-0.13274,0,185,86
0.23252,0,186,86
-0.43961,0,187,86
-0.81575,0,188,86
-0.86037,0,189,86
-0.027158,0,190,86
1.2672,0,191,86
0.31518,0,192,86
0.4529,0,193,86
0.10349,0,194,86
0.1087,0,195,86
0.030269,0,196,86
0.050252,0,197,86
0.3489,0,198,86
-0.79531,0,199,86
-0.036685,0,200,86
-0.21733,0,201,86
0.12134,0,202,86
0.33146,0,203,86
0.1175,0,204,86
-0.34225,0,205,86
-0.76671,0,206,86
0.1789,0,207,86
-0.36463,0,208,86
-0.22238,0,209,86
0.1348,0,210,86
0.19718,0,211,86
0.16177,0,212,86
-0.12462,0,213,86
0.29539,0,214,86
-0.3836,0,215,86
-0.26112,0,216,86
-0.2559,0,217,86
-0.73589,0,218,86
-1.2385,0,219,86
-0.70347,0,220,86
-0.014629,0,221,86
0.4743,0,222,86
0.48333,0,223,86
0.54227,0,224,86
0.41297,0,225,86
0.10174,0,226,86
0.21581,0,227,86
0.35086,0,228,86
0.24842,0,229,86
-0.26711,0,230,86
-0.63825,0,231,86
-0.032878,0,232,86
0.30562,0,233,86
0.63496,0,234,86
0.068504,0,235,86
-0.066046,0,236,86
0.31619,0,237,86
0.57005,0,238,86
0.4872,0,239,86
-0.10447,0,240,86
-0.68854,0,241,86
-0.32239,0,242,86
0.29283,0,243,86
0.5955,0,244,86
0.33989,0,245,86
0.27319,0,246,86
0.28639,0,247,86
-0.87622,0,248,86
-0.45843,0,249,86
-0.14935,0,250,86
-0.15701,0,251,86
-0.43253,0,252,86
-0.37293,0,253,86
0.33546,0,254,86
0.019121,0,255,86
0.7415,0,0,86
0.53355,0,1,86
0.19039,0,2,86
0.056375,0,3,86
-0.14986,0,4,86
-0.020048,0,5,86
0.68491,0,6,86
0.094789,0,7,86
0.14038,0,8,86
-0.49195,0,9,86
-1.4959,0,10,86
-1.4171,0,11,86
-0.57161,0,12,86
0.48506,0,13,86
0.44461,0,14,86
0.39089,0,15,86
0.37144,0,16,86
0.16462,0,17,86
-0.2883,0,18,86
-0.36589,0,19,86
-0.20967,0,20,86
0.11958,0,21,86
0.10939,0,22,86
-0.095233,0,23,86
-0.46772,0,24,86
-0.16289,0,25,86
0.029664,0,26,86
-0.052828,0,27,86
-0.012586,0,28,86
0.1393,0,29,86
0.044687,0,30,86
0.49732,0,31,86
0.28501,0,32,86
0.40372,0,33,86
0.74572,0,34,86
0.31946,0,35,86
0.076096,0,36,86
-0.25953,0,37,86
-0.15782,0,38,86
-1.0701,0,39,86
-0.36611,0,40,86
0.20179,0,41,86
0.49861,0,42,86
0.38198,0,43,86
0.83621,0,44,86
1.2849,0,45,86
-0.25226,0,46,86
-0.30832,0,47,86
-0.19827,0,48,86
-0.28725,0,49,86
-0.5293,0,50,86
-0.44964,0,51,86
0.3089,0,52,86
0.098293,0,53,86
1.0135,0,54,86
0.7386,0,55,86
0.37043,0,56,86
0.13248,0,57,86
-0.42235,0,58,86
-0.69303,0,59,86
-0.70211,0,60,86
-0.068095,0,61,86
-0.66741,0,62,86
-0.52211,0,63,86
0.010839,0,64,86
-0.20633,0,65,86
-0.26106,0,66,86
-0.021349,0,67,86
0.58596,0,68,86
0.022943,0,69,86
-0.51642,0,70,86
-0.63826,0,71,86
-0.44071,0,72,86
-0.11232,0,73,86
0.38558,0,74,86
0.57025,0,75,86
0.33098,0,76,86
-0.19236,0,77,86
-0.50279,0,78,86
-0.527,0,79,86
-0.64707,0,80,86
-0.1156,0,81,86
0.11632,0,82,86
0.45622,0,83,86
0.81751,0,84,86
0.7323,0,85,86
0.67536,0,86,86
0.38397,0,87,86
0.45477,0,88,86
-0.16784,0,89,86
-0.078758,0,90,86
0.16165,0,91,86
-0.030924,0,92,86
-0.019158,0,93,86
-0.22388,0,94,86
0.090805,0,95,86
-0.25266,0,96,86
-0.17377,0,97,86
-0.30804,0,98,86
-0.30575,0,99,86
-0.30154,0,100,86
-0.032657,0,101,86
0.76564,0,102,86
-0.1941,0,103,86
-0.14613,0,104,86
-0.51417,0,105,86
-0.41346,0,106,86
-0.46674,0,107,86
-0.19789,0,108,86
0.38884,0,109,86
-0.055944,0,110,86
0.28449,0,111,86
-0.23654,0,112,86
0.17161,0,113,86
0.83186,0,114,86
0.84805,0,115,86
0.56162,0,116,86
0.18772,0,117,86
0.48379,0,118,86
-0.42142,0,119,86
-0.3909,0,120,86
0.084277,0,121,86
0.11854,0,122,86
0.23137,0,123,86
0.10928,0,124,86
-0.36845,0,125,86
-0.49518,0,126,86
-0.24123,0,127,86
-0.46401,0,128,86
-1.0514,0,129,86
-0.65267,0,130,86
0.12345,0,131,86
0.65507,0,132,86
0.70918,0,133,86
0.47109,0,134,86
0.22347,0,135,86
-0.38325,0,136,86
-0.49036,0,137,86
-0.79041,0,138,86
-0.67656,0,139,86
-0.15303,0,140,86
0.05016,0,141,86
0.72003,0,142,86
0.67859,0,143,86
0.77738,0,144,86
0.42281,0,145,86
0.59859,0,146,86
0.77486,0,147,86
0.17819,0,148,86
-0.34514,0,149,86
-0.63483,0,150,86
-0.1879,0,151,86
-0.59151,0,152,86
-0.080029,0,153,86
0.1266,0,154,86
0.23003,0,155,86
-0.088744,0,156,86
0.079214,0,157,86
0.56472,0,158,86
-0.30784,0,159,86
0.10964,0,160,86
0.074787,0,161,86
-0.12725,0,162,86
-0.52203,0,163,86
-0.74286,0,164,86
-0.15445,0,165,86
-0.39015,0,166,86
0.3096,0,167,86
0.024235,0,168,86
-0.16858,0,169,86
-0.081152,0,170,86
-0.43691,0,171,86
-0.68259,0,172,86
-0.32689,0,173,86
0.73184,0,174,86
0.43852,0,175,86
0.43737,0,176,86
0.61499,0,177,86
0.38479,0,178,86
0.142,0,179,86
0.027085,0,180,86
0.29177,0,181,86
-0.1253,0,182,86
-0.21964,0,183,86
-0.30502,0,184,86
-0.2597,0,185,86
-0.49706,0,186,86
-0.3531,0,187,86
-0.45604,0,188,86
-0.37838,0,189,86
-0.30756,0,190,86
0.054483,0,191,86
-0.37767,0,192,86
-0.59582,0,193,86
-0.60261,0,194,86
0.15096,0,195,86
0.9366,0,196,86
1.2076,0,197,86
1.0783,0,198,86
0.67093,0,199,86
0.48733,0,200,86
-0.06661,0,201,86
0.10489,0,202,86
0.19186,0,203,86
-0.042938,0,204,86
-0.47621,0,205,86
-0.66211,0,206,86
-1.2351,0,207,86
-0.17464,0,208,86
0.96776,0,209,86
1.5736,0,210,86
1.1492,0,211,86
0.80354,0,212,86
0.75871,0,213,86
-0.58981,0,214,86
-0.34059,0,215,86
-0.30267,0,216,86
0.076565,0,217,86
-0.075393,0,218,86
-0.076707,0,219,86
0.15513,0,220,86
-0.67983,0,221,86
-0.38328,0,222,86
-1.0667,0,223,86
-0.53258,0,224,86
-0.26787,0,225,86
-0.24277,0,226,86
-0.18247,0,227,86
-0.079126,0,228,86
0.75507,0,229,86
0.22719,0,230,86
-0.067306,0,231,86
-0.27791,0,232,86
-0.43271,0,233,86
-0.45419,0,234,86
-0.27177,0,235,86
0.34733,0,236,86
0.14528,0,237,86
-0.19498,0,238,86
0.014364,0,239,86
0.35734,0,240,86
0.035973,0,241,86
-0.13938,0,242,86
-0.41063,0,243,86
-0.3481,0,244,86
-0.058419,0,245,86
0.59526,0,246,86
0.67272,0,247,86
0.29,0,248,86
0.35018,0,249,86
0.075612,0,250,86
-0.13032,0,251,86
-0.54281,0,252,86
-0.65356,0,253,86
-0.8968,0,254,86
-0.84981,0,255,86
-0.87029,0,0,86
-0.25014,0,1,86
0.06505,0,2,86
0.090141,0,3,86
0.055081,0,4,86
0.17462,0,5,86
1.3037,0,6,86
1.1915,0,7,86
1.3911,0,8,86
0.73027,0,9,86
0.25283,0,10,86
0.044288,0,11,86
0.20857,0,12,86
0.42471,0,13,86
-0.61057,0,14,86
-0.28443,0,15,86
-0.18286,0,16,86
0.27504,0,17,86
-0.011184,0,18,86
-0.52727,0,19,86
-0.20167,0,20,86
0.3783,0,21,86
-0.18928,0,22,86
0.059036,0,23,86
0.060795,0,24,86
-0.022065,0,25,86
-0.20322,0,26,86
0.2132,0,27,86
0.14449,0,28,86
0.19146,0,29,86
0.10446,0,30,86
-0.14446,0,31,86
0.052534,0,32,86
0.3388,0,33,86
-0.76287,0,34,86
-0.1472,0,35,86
-0.88793,0,36,86
-0.67329,0,37,86
-0.5357,0,38,86
-0.39473,0,39,86
-0.13488,0,40,86
0.24442,0,41,86
0.85408,0,42,86
0.28171,0,43,86
0.12267,0,44,86
-0.27057,0,45,86
-0.55953,0,46,86
-0.66068,0,47,86
-0.28088,0,48,86
-0.21753,0,49,86
-0.30667,0,50,86
0.081935,0,51,86
0.49851,0,52,86
0.68502,0,53,86
0.3936,0,54,86
0.43704,0,55,86
0.37532,0,56,86
0.29751,0,57,86
0.49745,0,58,86
0.11516,0,59,86
0.03027,0,60,86
-0.22077,0,61,86
0.29145,0,62,86
0.76545,0,63,86
0.47681,0,64,86
0.19848,0,65,86
-0.19254,0,66,86
-0.15105,0,67,86
-0.19854,0,68,86
0.064393,0,69,86
-0.78562,0,70,86
-0.60147,0,71,86
-0.22209,0,72,86
0.38517,0,73,86
0.45088,0,74,86
0.42476,0,75,86
0.48826,0,76,86
-0.72122,0,77,86
-0.4927,0,78,86
-0.64168,0,79,86
-0.29469,0,80,86
-0.1967,0,81,86
0.23222,0,82,86
0.88977,0,83,86
0.083927,0,84,86
0.51839,0,85,86
-0.33785,0,86,86
-0.29182,0,87,86
-0.33064,0,88,86
-0.71665,0,89,86
-0.58606,0,90,86
-0.48839,0,91,86
0.51228,0,92,86
-0.2185,0,93,86
-0.24003,0,94,86
-0.084963,0,95,86
-0.51234,0,96,86
-0.35318,0,97,86
0.20337,0,98,86
1.224,0,99,86
0.61133,0,100,86
0.049923,0,101,86
0.024572,0,102,86
0.0571,0,103,86
-0.21949,0,104,86
-0.52562,0,105,86
-0.52113,0,106,86
-0.2139,0,107,86
-0.069756,0,108,86
0.43248,0,109,86
0.53776,0,110,86
0.11313,0,111,86
-0.32199,0,112,86
-0.26822,0,113,86
-0.17238,0,114,86
0.15463,0,115,86
-0.012656,0,116,86
-0.029351,0,117,86
-0.60391,0,118,86
-0.47288,0,119,86
-0.56038,0,120,86
-0.1384,0,121,86
0.75366,0,122,86
0.69031,0,123,86
0.38684,0,124,86
0.018134,0,125,86
0.39217,0,126,86
-0.34132,0,127,86
0.1816,0,128,86
0.83972,0,129,86
1.1243,0,130,86
0.78912,0,131,86
0.66486,0,132,86
1.1602,0,133,86
0.07926,0,134,86
0.196,0,135,86
-0.028989,0,136,86
-0.3626,0,137,86
-0.78879,0,138,86
-0.43484,0,139,86
0.60666,0,140,86
0.18431,0,141,86
0.8239,0,142,86
0.1679,0,143,86
-0.38791,0,144,86
-0.49018,0,145,86
-0.69331,0,146,86
-0.45474,0,147,86
-0.55791,0,148,86
0.13625,0,149,86
-0.47138,0,150,86
-0.58727,0,151,86
-0.35522,0,152,86
0.1166,0,153,86
0.021083,0,154,86
-0.22444,0,155,86
-0.33033,0,156,86
-0.81999,0,157,86
-0.80829,0,158,86
-0.14014,0,159,86
0.32182,0,160,86
0.47932,0,161,86
0.84236,0,162,86
0.74811,0,163,86
0.12619,0,164,86
-0.17348,0,165,86
-0.309,0,166,86
-0.34217,0,167,86
-0.52766,0,168,86
-0.046958,0,169,86
0.11092,0,170,86
0.28195,0,171,86
0.34032,0,172,86
-0.027129,0,173,86
-0.24063,0,174,86
-0.54938,0,175,86
-0.62075,0,176,86
-1.055,0,177,86
-0.93966,0,178,86
-0.22644,0,179,86
0.17368,0,180,86
0.45958,0,181,86
0.19606,0,182,86
0.71286,0,183,86
0.044729,0,184,86
0.36284,0,185,86
0.62216,0,186,86
0.79082,0,187,86
0.094064,0,188,86
-0.52061,0,189,86
-0.3632,0,190,86
-0.93196,0,191,86
0.51673,0,192,86
1.0814,0,193,86
0.88631,0,194,86
0.39997,0,195,86
0.30965,0,196,86
0.75362,0,197,86
-0.21999,0,198,86
0.61785,0,199,86
0.074683,0,200,86
0.071552,0,201,86
0.37549,0,202,86
0.063232,0,203,86
-0.23403,0,204,86
-0.50664,0,205,86
-0.65208,0,206,86
-1.7383,0,207,86
-0.81684,0,208,86
0.69767,0,209,86
1.1754,0,210,86
0.94723,0,211,86
0.5182,0,212,86
0.46273,0,213,86
-0.20471,0,214,86
-0.4526,0,215,86
-0.48911,0,216,86
-0.43474,0,217,86
-0.45773,0,218,86
-0.17284,0,219,86
-0.26694,0,220,86
-0.42881,0,221,86
-0.23692,0,222,86
0.12092,0,223,86
0.18377,0,224,86
-0.50616,0,225,86
-0.88382,0,226,86
-1.3084,0,227,86
-1.1346,0,228,86
-0.60274,0,229,86
0.64663,0,230,86
0.71557,0,231,86
1.1354,0,232,86
0.56804,0,233,86
0.30008,0,234,86
0.15961,0,235,86
-0.39114,0,236,86
-0.52723,0,237,86
-0.39131,0,238,86
0.60776,0,239,86
0.49765,0,240,86
0.99809,0,241,86
1.1435,0,242,86
0.78292,0,243,86
-0.33976,0,244,86
0.36836,0,245,86
-0.28654,0,246,86
0.40762,0,247,86
0.5903,0,248,86
0.78343,0,249,86
0.31361,0,250,86
-0.091352,0,251,86
0.20098,0,252,86
-0.40615,0,253,86
0.43469,0,254,86
0.095893,0,255,86
-0.40492,0,0,86
-0.42122,0,1,86
-0.46019,0,2,86
-0.18005,0,3,86
-0.23645,0,4,86
0.55336,0,5,86
-0.32404,0,6,86
-0.65338,0,7,86
-0.46395,0,8,86
-0.5531,0,9,86
-0.79344,0,10,86
-0.92767,0,11,86
-0.10373,0,12,86
0.087732,0,13,86
0.052524,0,14,86
0.049632,0,15,86
-0.22535,0,16,86
-0.34001,0,17,86
-0.4443,0,18,86
-0.34165,0,19,86
-0.13557,0,20,86
0.37116,0,21,86
0.3475,0,22,86
-0.53086,0,23,86
-0.3293,0,24,86
0.010084,0,25,86
0.43195,0,26,86
0.74435,0,27,86
0.074087,0,28,86
-0.19188,0,29,86
-0.32254,0,30,86
0.09726,0,31,86
0.23329,0,32,86
0.32973,0,33,86
-0.43356,0,34,86
-0.35768,0,35,86
0.04235,0,36,86
0.83268,0,37,86
0.020071,0,38,86
0.15141,0,39,86
0.29155,0,40,86
0.37386,0,41,86
0.28702,0,42,86
0.43729,0,43,86
1.0597,0,44,86
0.054642,0,45,86
0.24479,0,46,86
0.011494,0,47,86
-0.032116,0,48,86
-0.072771,0,49,86
0.061723,0,50,86
0.37558,0,51,86
-0.24531,0,52,86
-0.24173,0,53,86
-0.57312,0,54,86
-0.70576,0,55,86
-0.5287,0,56,86
-0.23101,0,57,86
0.21391,0,58,86
0.09715,0,59,86
0.71115,0,60,86
0.1733,0,61,86
0.26659,0,62,86
0.51499,0,63,86
0.15029,0,64,86
0.083802,0,65,86
0.38233,0,66,86
-0.32283,0,67,86
-0.68983,0,68,86
-0.76788,0,69,86
-0.51902,0,70,86
-0.50051,0,71,86
0.015936,0,72,86
0.26437,0,73,86
0.45539,0,74,86
0.33678,0,75,86
0.19166,0,76,86
-0.1432,0,77,86
-0.47941,0,78,86
-0.50427,0,79,86
-0.29501,0,80,86
0.23805,0,81,86
0.4346,0,82,86
0.18594,0,83,86
0.19985,0,84,86
-0.1075,0,85,86
0.26904,0,86,86
-0.16065,0,87,86
-0.28377,0,88,86
-0.10376,0,89,86
0.13048,0,90,86
0.17691,0,91,86
-0.11424,0,92,86
0.11158,0,93,86
-0.52954,0,94,86
-0.19757,0,95,86
0.17515,0,96,86
0.33745,0,97,86
0.20128,0,98,86
0.037606,0,99,86
0.30407,0,100,86
-0.47906,0,101,86
0.29297,0,102,86
0.41201,0,103,86
0.46186,0,104,86
-0.18969,0,105,86
-0.17997,0,106,86
0.39031,0,107,86
-0.18529,0,108,86
0.40092,0,109,86
-0.19585,0,110,86
-0.075571,0,111,86
-0.06464,0,112,86
-0.18073,0,113,86
-0.23032,0,114,86
-0.15356,0,115,86
0.012043,0,116,86
-0.93489,0,117,86
-0.90646,0,118,86
-0.49106,0,119,86
-0.17565,0,120,86
-0.28247,0,121,86
-0.1008,0,122,86
0.28395,0,123,86
0.030354,0,124,86
0.20731,0,125,86
0.068387,0,126,86
-0.34663,0,127,86
-0.047736,0,128,86
0.47028,0,129,86
0.6139,0,130,86
0.55912,0,131,86
0.47852,0,132,86
0.41332,0,133,86
0.092108,0,134,86
-0.26262,0,135,86
-0.46256,0,136,86
-0.17286,0,137,86
0.19836,0,138,86
0.22549,0,139,86
-0.10746,0,140,86
-0.37591,0,141,86
0.047122,0,142,86
-0.22616,0,143,86
0.12719,0,144,86
0.55937,0,145,86
0.53415,0,146,86
0.48262,0,147,86
-0.089386,0,148,86
0.22276,0,149,86
-0.24733,0,150,86
0.070135,0,151,86
0.2076,0,152,86
0.1563,0,153,86
0.24381,0,154,86
0.72844,0,155,86
-0.43669,0,156,86
-0.28005,0,157,86
-0.30004,0,158,86
-0.28715,0,159,86
-0.71456,0,160,86
-0.91532,0,161,86
-0.27759,0,162,86
-0.44412,0,163,86
0.69652,0,164,86
0.31649,0,165,86
-0.033865,0,166,86
0.062919,0,167,86
0.17732,0,168,86
0.36039,0,169,86
0.34895,0,170,86
0.85536,0,171,86
0.010855,0,172,86
-0.15852,0,173,86
-0.4262,0,174,86
-0.464,0,175,86
-0.30667,0,176,86
-0.23987,0,177,86
0.4072,0,178,86
-0.070889,0,179,86
-0.092727,0,180,86
-0.067595,0,181,86
0.096557,0,182,86
-0.12337,0,183,86
-0.048887,0,184,86
-0.095449,0,185,86
-0.58752,0,186,86
-0.84987,0,187,86
-0.4061,0,188,86
0.29509,0,189,86
0.30497,0,190,86
0.58077,0,191,86
0.52059,0,192,86
0.13931,0,193,86
0.062254,0,194,86
-0.146,0,195,86
-0.03986,0,196,86
-0.12811,0,197,86
0.13702,0,198,86
-0.47169,0,199,86
-0.51431,0,200,86
-0.21196,0,201,86
-0.022444,0,202,86
0.16252,0,203,86
0.48102,0,204,86
0.80026,0,205,86
0.25021,0,206,86
0.34608,0,207,86
0.32834,0,208,86
-0.094511,0,209,86
-0.32196,0,210,86
-0.012818,0,211,86
1.0611,0,212,86
0.13478,0,213,86
0.6676,0,214,86
-0.15218,0,215,86
-0.6646,0,216,86
-0.91049,0,217,86
-0.34688,0,218,86
0.67995,0,219,86
0.27407,0,220,86
0.79129,0,221,86
-0.091806,0,222,86
-0.57365,0,223,86
-1.0084,0,224,86
-1.0758,0,225,86
-0.77825,0,226,86
-0.77635,0,227,86
0.080481,0,228,86
-0.21829,0,229,86
-0.070278,0,230,86
0.08867,0,231,86
0.03798,0,232,86
-0.041293,0,233,86
-0.046351,0,234,86
0.53009,0,235,86
-0.37796,0,236,86
-0.064284,0,237,86
0.61788,0,238,86
0.80854,0,239,86
0.87415,0,240,86
0.57024,0,241,86
0.090949,0,242,86
-0.14069,0,243,86
0.13541,0,244,86
0.32038,0,245,86
0.32573,0,246,86
0.52858,0,247,86
0.50646,0,248,86
0.63025,0,249,86
0.7394,0,250,86
0.71081,0,251,86
0.64512,0,252,86
-0.043047,0,253,86
-0.075758,0,254,86
-0.3778,0,255,86
-0.41528,0,0,86
-0.26176,0,1,86
0.072846,0,2,86
-0.21423,0,3,86
-0.17794,0,4,86
-0.89167,0,5,86
-0.89447,0,6,86
-0.70674,0,7,86
-0.37715,0,8,86
-0.29918,0,9,86
-0.052821,0,10,86
0.56948,0,11,86
-0.44004,0,12,86
-0.19445,0,13,86
-0.11191,0,14,86
-0.38789,0,15,86
-0.9247,0,16,86
-1.1432,0,17,86
-0.28375,0,18,86
-0.56484,0,19,86
0.23699,0,20,86
-0.84702,0,21,86
-1.0446,0,22,86
-0.34744,0,23,86
0.29908,0,24,86
0.46987,0,25,86
0.6285,0,26,86
1.1099,0,27,86
0.2779,0,28,86
0.030929,0,29,86
0.13957,0,30,86
0.24882,0,31,86
0.22504,0,32,86
0.07156,0,33,86
0.047506,0,34,86
-0.47602,0,35,86
-0.27623,0,36,86
-0.17726,0,37,86
0.079251,0,38,86
-0.12208,0,39,86
0.16161,0,40,86
0.47941,0,41,86
0.1853,0,42,86
-0.07114,0,43,86
0.26374,0,44,86
0.60443,0,45,86
0.41254,0,46,86
0.57575,0,47,86
0.64844,0,48,86
0.3479,0,49,86
-0.080452,0,50,86
-0.34833,0,51,86
-0.1538,0,52,86
-0.078915,0,53,86
0.41892,0,54,86
-0.18645,0,55,86
-0.37645,0,56,86
-0.17846,0,57,86
-0.027337,0,58,86
0.24089,0,59,86
0.038659,0,60,86
0.45681,0,61,86
-0.36671,0,62,86
-0.24543,0,63,86
-0.012683,0,64,86
0.45172,0,65,86
0.1814,0,66,86
-0.11193,0,67,86
0.54506,0,68,86
-0.24317,0,69,86
0.47848,0,70,86
0.57468,0,71,86
0.56957,0,72,86
0.35941,0,73,86
0.28643,0,74,86
0.49102,0,75,86
-0.55497,0,76,86
-0.12508,0,77,86
-0.63657,0,78,86
-0.29062,0,79,86
0.13211,0,80,86
0.36059,0,81,86
0.40728,0,82,86
0.27231,0,83,86
0.79403,0,84,86
-0.16173,0,85,86
-0.2197,0,86,86
-0.30422,0,87,86
-0.42166,0,88,86
-0.60175,0,89,86
-0.48221,0,90,86
0.11057,0,91,86
-0.29462,0,92,86
-0.59711,0,93,86
-0.54718,0,94,86
-0.40793,0,95,86
-0.40903,0,96,86
-0.35834,0,97,86
-0.61207,0,98,86
-0.81908,0,99,86
-0.73285,0,100,86
-0.14798,0,101,86
0.028601,0,102,86
-0.10707,0,103,86
0.45615,0,104,86
0.59312,0,105,86
0.82996,0,106,86
0.74367,0,107,86
-0.5247,0,108,86
-0.93102,0,109,86
-0.7399,0,110,86
0.19716,0,111,86
0.39759,0,112,86
0.29867,0,113,86
0.51358,0,114,86
0.30196,0,115,86
0.32364,0,116,86
0.21019,0,117,86
0.38242,0,118,86
-0.36191,0,119,86
0.0103,0,120,86
0.5007,0,121,86
0.52569,0,122,86
0.11335,0,123,86
-0.051282,0,124,86
0.33158,0,125,86
-0.57762,0,126,86
-0.14337,0,127,86
-0.22607,0,128,86
0.048854,0,129,86
0.29512,0,130,86
0.03885,0,131,86
0.40723,0,132,86
-0.56856,0,133,86
-0.26535,0,134,86
-0.49704,0,135,86
-0.27893,0,136,86
-0.087332,0,137,86
-0.053002,0,138,86
-0.038931,0,139,86
-0.26713,0,140,86
0.423,0,141,86
0.023673,0,142,86
0.04255,0,143,86
-0.024054,0,144,86
-0.22439,0,145,86
-0.32997,0,146,86
0.15039,0,147,86
0.81757,0,148,86
0.32158,0,149,86
0.30005,0,150,86
0.14748,0,151,86
-0.18508,0,152,86
-0.43563,0,153,86
0.38709,0,154,86
0.52322,0,155,86
0.068503,0,156,86
-0.56957,0,157,86
-1.0056,0,158,86
-0.82257,0,159,86
0.07951,0,160,86
0.64513,0,161,86
0.79146,0,162,86
0.61909,0,163,86
0.075729,0,164,86
-0.16141,0,165,86
-0.37829,0,166,86
-0.044515,0,167,86
-0.34331,0,168,86
-0.55897,0,169,86
-0.54793,0,170,86
-0.035867,0,171,86
0.77423,0,172,86
1.0244,0,173,86
1.434,0,174,86
0.063376,0,175,86
-0.21088,0,176,86
-0.14533,0,177,86
0.10851,0,178,86
-0.16274,0,179,86
0.23093,0,180,86
-0.59186,0,181,86
-0.12289,0,182,86
0.078644,0,183,86
-0.20596,0,184,86
-0.56032,0,185,86
-0.71677,0,186,86
-0.048573,0,187,86
-0.39491,0,188,86
0.61086,0,189,86
0.3965,0,190,86
0.17742,0,191,86
0.048787,0,192,86
-0.016822,0,193,86
-0.3342,0,194,86
-0.65999,0,195,86
0.45936,0,196,86
0.14139,0,197,86
0.38771,0,198,86
0.58333,0,199,86
0.22875,0,200,86
-0.21839,0,201,86
-0.32531,0,202,86
-0.13639,0,203,86
-0.66594,0,204,86
-0.58042,0,205,86
-0.49749,0,206,86
-0.041698,0,207,86
0.061841,0,208,86
0.3915,0,209,86
0.43073,0,210,86
-0.10995,0,211,86
-0.48427,0,212,86
-0.58022,0,213,86
-0.40427,0,214,86
-0.25059,0,215,86
-0.17999,0,216,86
-0.2776,0,217,86
0.14428,0,218,86
0.95015,0,219,86
0.88279,0,220,86
1.0071,0,221,86
0.7907,0,222,86
1.0054,0,223,86
0.13751,0,224,86
-0.63878,0,225,86
-0.44484,0,226,86
-0.29273,0,227,86
-0.042495,0,228,86
0.15517,0,229,86
0.74326,0,230,86
0.23716,0,231,86
0.23188,0,232,86
0.060042,0,233,86
-0.085625,0,234,86
-0.48262,0,235,86
-0.4455,0,236,86
0.022151,0,237,86
-0.92454,0,238,86
-0.24599,0,239,86
-0.10716,0,240,86
0.015048,0,241,86
0.10177,0,242,86
-0.10367,0,243,86
0.37874,0,244,86
-0.31673,0,245,86
0.27724,0,246,86
-0.26346,0,247,86
-0.08878,0,248,86
0.07431,0,249,86
0.091215,0,250,86
0.10828,0,251,86
0.011946,0,252,86
0.57481,0,253,86
-0.412,0,254,86
-0.61453,0,255,86
-0.39011,0,0,86
-0.389,0,1,86
-0.17538,0,2,86
0.22523,0,3,86
0.64622,0,4,86
0.082155,0,5,86
-0.11153,0,6,86
-0.049669,0,7,86
0.064852,0,8,86
-0.057812,0,9,86
-0.18612,0,10,86
-0.5132,0,11,86
-0.39698,0,12,86
-0.22545,0,13,86
0.15158,0,14,86
0.48134,0,15,86
0.25822,0,16,86
0.18626,0,17,86
-0.08095,0,18,86
-0.15592,0,19,86
-0.10267,0,20,86
-0.101,0,21,86
0.10651,0,22,86
0.084513,0,23,86
0.41403,0,24,86
-0.16209,0,25,86
0.048286,0,26,86
-0.10853,0,27,86
-0.76504,0,28,86
-0.63801,0,29,86
-0.02757,0,30,86
0.88329,0,31,86
0.62221,0,32,86
0.88911,0,33,86
0.75331,0,34,86
0.65986,0,35,86
0.35977,0,36,86
0.24271,0,37,86
0.47329,0,38,86
-0.58508,0,39,86
-0.4768,0,40,86
-1.0523,0,41,86
-0.85319,0,42,86
-0.46664,0,43,86
0.18904,0,44,86
0.73489,0,45,86
-0.30846,0,46,86
0.35498,0,47,86
-0.060434,0,48,86
-0.033632,0,49,86
-0.024941,0,50,86
0.35802,0,51,86
0.18963,0,52,86
0.63093,0,53,86
-0.13086,0,54,86
-0.34433,0,55,86
-0.35771,0,56,86
-0.4117,0,57,86
-0.61375,0,58,86
-0.19656,0,59,86
0.61786,0,60,86
0.54704,0,61,86
0.45305,0,62,86
0.47237,0,63,86
0.36412,0,64,86
0.17145,0,65,86
0.17827,0,66,86
0.19295,0,67,86
-0.22562,0,68,86
-0.72987,0,69,86
-0.7578,0,70,86
-0.16642,0,71,86
0.17919,0,72,86
0.23934,0,73,86
0.18614,0,74,86
0.31723,0,75,86
0.56122,0,76,86
-0.51564,0,77,86
-1.197,0,78,86
-1.2393,0,79,86
-0.098614,0,80,86
0.31797,0,81,86
0.32225,0,82,86
-0.035295,0,83,86
-0.33692,0,84,86
0.024463,0,85,86
0.032479,0,86,86
0.42091,0,87,86
-0.31977,0,88,86
-0.13705,0,89,86
-0.1901,0,90,86
0.073644,0,91,86
-0.011175,0,92,86
-0.41525,0,93,86
0.053284,0,94,86
-0.54257,0,95,86
0.19353,0,96,86
0.30158,0,97,86
0.40802,0,98,86
0.12143,0,99,86
0.094262,0,100,86
0.16748,0,101,86
-0.98478,0,102,86
-0.15684,0,103,86
-0.13424,0,104,86
0.26799,0,105,86
0.5441,0,106,86
0.38161,0,107,86
0.12128,0,108,86
0.17933,0,109,86
0.95369,0,110,86
0.40104,0,111,86
0.15198,0,112,86
-0.1439,0,113,86
-0.57696,0,114,86
-0.37138,0,115,86
-0.14193,0,116,86
0.23585,0,117,86
-0.15028,0,118,86
-0.4076,0,119,86
-0.60348,0,120,86
-0.72918,0,121,86
-0.62731,0,122,86
0.07706,0,123,86
0.66906,0,124,86
0.58663,0,125,86
0.015271,0,126,86
-0.22034,0,127,86
-0.26281,0,128,86
-0.27716,0,129,86
-0.46143,0,130,86
-0.32105,0,131,86
0.10455,0,132,86
0.74584,0,133,86
0.95754,0,134,86
1.0047,0,135,86
0.41496,0,136,86
0.64797,0,137,86
0.46891,0,138,86
0.31135,0,139,86
0.22374,0,140,86
0.10117,0,141,86
0.067761,0,142,86
-0.13214,0,143,86
0.45584,0,144,86
-0.20222,0,145,86
-0.036091,0,146,86
0.39275,0,147,86
0.40171,0,148,86
-0.26428,0,149,86
-0.64031,0,150,86
0.18852,0,151,86
-0.72924,0,152,86
-0.48109,0,153,86
-0.55712,0,154,86
-0.039604,0,155,86
0.24087,0,156,86
0.40434,0,157,86
0.81694,0,158,86
0.018396,0,159,86
0.48507,0,160,86
-0.054771,0,161,86
0.064203,0,162,86
0.16734,0,163,86
-0.20835,0,164,86
-0.64919,0,165,86
-1.1847,0,166,86
-0.36762,0,167,86
-0.85844,0,168,86
-0.58743,0,169,86
-0.016242,0,170,86
0.22805,0,171,86
0.20565,0,172,86
0.060333,0,173,86
0.29528,0,174,86
-0.36069,0,175,86
-0.68872,0,176,86
-0.72853,0,177,86
-0.42389,0,178,86
-0.09927,0,179,86
0.10995,0,180,86
0.47976,0,181,86
0.69479,0,182,86
0.22186,0,183,86
-0.02051,0,184,86
-0.39937,0,185,86
-0.72281,0,186,86
-0.28159,0,187,86
-0.20157,0,188,86
-0.5305,0,189,86
-0.33424,0,190,86
-0.19678,0,191,86
0.42069,0,192,86
0.4058,0,193,86
0.73627,0,194,86
0.34319,0,195,86
0.26732,0,196,86
0.55008,0,197,86
0.43102,0,198,86
0.40501,0,199,86
0.21257,0,200,86
0.53283,0,201,86
-0.24282,0,202,86
-0.25183,0,203,86
-0.16934,0,204,86
-0.10662,0,205,86
-0.42257,0,206,86
-0.66136,0,207,86
0.040297,0,208,86
-0.58708,0,209,86
0.10519,0,210,86
0.71373,0,211,86
1.1053,0,212,86
0.36369,0,213,86
0.047926,0,214,86
0.50798,0,215,86
-0.27584,0,216,86
0.12178,0,217,86
-0.58957,0,218,86
-0.40234,0,219,86
0.078638,0,220,86
0.2413,0,221,86
0.37205,0,222,86
0.086781,0,223,86
0.61157,0,224,86
0.028184,0,225,86
0.12883,0,226,86
0.30248,0,227,86
-0.10507,0,228,86
-0.50813,0,229,86
-0.75087,0,230,86
-0.37933,0,231,86
-0.9962,0,232,86
-0.87946,0,233,86
-0.12784,0,234,86
0.36573,0,235,86
0.28112,0,236,86
0.43115,0,237,86
0.35101,0,238,86
0.028804,0,239,86
-0.034629,0,240,86
0.30254,0,241,86
0.62385,0,242,86
0.64966,0,243,86
0.32355,0,244,86
-0.15043,0,245,86
-0.11515,0,246,86
0.43051,0,247,86
0.32128,0,248,86
0.37519,0,249,86
0.036826,0,250,86
-0.45999,0,251,86
-0.36185,0,252,86
0.2781,0,253,86
0.31645,0,254,86
-0.023983,0,255,86
-0.27551,0,0,86
-0.057654,0,1,86
-0.45167,0,2,86
0.27599,0,3,86
0.39083,0,4,86
0.36218,0,5,86
-1.104,0,6,86
-0.72963,0,7,86
0.55429,0,8,86
0.060062,0,9,86
0.36525,0,10,86
0.069239,0,11,86
-0.14555,0,12,86
-0.55113,0,13,86
-0.44013,0,14,86
-0.13268,0,15,86
-1.0579,0,16,86
-0.55171,0,17,86
-0.83294,0,18,86
-0.44059,0,19,86
-0.18263,0,20,86
-0.25355,0,21,86
0.080121,0,22,86
0.54605,0,23,86
0.15872,0,24,86
0.25361,0,25,86
-0.020031,0,26,86
-0.026431,0,27,86
-0.060633,0,28,86
-0.076025,0,29,86
-0.27407,0,30,86
0.12185,0,31,86
-0.5476,0,32,86
-0.33601,0,33,86
0.19018,0,34,86
0.59644,0,35,86
0.61828,0,36,86
0.46571,0,37,86
0.60721,0,38,86
0.36062,0,39,86
0.33282,0,40,86
0.66169,0,41,86
0.61554,0,42,86
0.16861,0,43,86
0.085117,0,44,86
-0.080165,0,45,86
-0.20703,0,46,86
-0.1097,0,47,86
0.066527,0,48,86
-0.029792,0,49,86
-0.23011,0,50,86
0.056938,0,51,86
-0.11056,0,52,86
-0.36262,0,53,86
-0.28908,0,54,86
-0.56446,0,55,86
-0.049717,0,56,86
0.14223,0,57,86
0.73861,0,58,86
0.24746,0,59,86
-0.21023,0,60,86
-0.64239,0,61,86
-0.67182,0,62,86
0.025402,0,63,86
0.5124,0,64,86
0.85521,0,65,86
-0.02182,0,66,86
0.15218,0,67,86
0.37217,0,68,86
0.4522,0,69,86
0.071124,0,70,86
-0.047071,0,71,86
0.54466,0,72,86
0.043535,0,73,86
0.25762,0,74,86
0.094499,0,75,86
-0.32471,0,76,86
-0.50983,0,77,86
-0.23646,0,78,86
0.31074,0,79,86
-0.047965,0,80,86
0.69964,0,81,86
-0.23484,0,82,86
-0.41312,0,83,86
-0.23854,0,84,86
-0.51248,0,85,86
-0.72858,0,86,86
-0.46534,0,87,86
0.071026,0,88,86
-0.38848,0,89,86
-0.79469,0,90,86
-0.50664,0,91,86
-0.20244,0,92,86
-0.54222,0,93,86
-0.16306,0,94,86
0.046813,0,95,86
0.14578,0,96,86
0.42332,0,97,86
0.77308,0,98,86
0.35861,0,99,86
-0.53325,0,100,86
-0.43556,0,101,86
0.20662,0,102,86
0.80157,0,103,86
0.8537,0,104,86
0.32543,0,105,86
-0.031191,0,106,86
-0.60314,0,107,86
-0.19999,0,108,86
-0.29856,0,109,86
0.050877,0,110,86
0.42168,0,111,86
-0.24704,0,112,86
-0.63045,0,113,86
-0.52794,0,114,86
0.54018,0,115,86
0.42354,0,116,86
0.51715,0,117,86
0.38342,0,118,86
0.38271,0,119,86
-0.016401,0,120,86
-0.10127,0,121,86
0.33129,0,122,86
-0.90401,0,123,86
-0.39215,0,124,86
0.24778,0,125,86
0.34014,0,126,86
0.027226,0,127,86
0.32734,0,128,86
0.8,0,129,86
-0.15012,0,130,86
0.23383,0,131,86
-0.74145,0,132,86
-0.86563,0,133,86
-0.50962,0,134,86
-0.15905,0,135,86
0.36094,0,136,86
0.81928,0,137,86
1.434,0,138,86
0.52434,0,139,86
0.15991,0,140,86
0.085552,0,141,86
-0.26014,0,142,86
-0.51769,0,143,86
-0.87642,0,144,86
-0.80001,0,145,86
-1.1145,0,146,86
-0.45035,0,147,86
0.46738,0,148,86
0.88416,0,149,86
0.73421,0,150,86
0.53768,0,151,86
0.035942,0,152,86
-0.18502,0,153,86
-0.38704,0,154,86
-0.25677,0,155,86
0.18399,0,156,86
-0.25175,0,157,86
-0.13803,0,158,86
-0.011051,0,159,86
0.023815,0,160,86
0.28698,0,161,86
0.049421,0,162,86
0.12971,0,163,86
0.11007,0,164,86
0.22985,0,165,86
-0.72896,0,166,86
-0.52358,0,167,86
0.27493,0,168,86
0.60397,0,169,86
1.0222,0,170,86
0.52067,0,171,86
0.29561,0,172,86
-1.1852,0,173,86
-1.3215,0,174,86
-0.785,0,175,86
-0.025573,0,176,86
-0.053214,0,177,86
0.76741,0,178,86
0.17191,0,179,86
0.93873,0,180,86
0.71529,0,181,86
0.29202,0,182,86
-0.19436,0,183,86
-0.12417,0,184,86
0.69443,0,185,86
-0.21382,0,186,86
0.33351,0,187,86
-0.2862,0,188,86
-0.60583,0,189,86
-0.41065,0,190,86
-0.43158,0,191,86
-0.37227,0,192,86
-0.61501,0,193,86
-0.32443,0,194,86
-0.088992,0,195,86
0.20745,0,196,86
0.066866,0,197,86
-0.13443,0,198,86
-0.16222,0,199,86
0.55295,0,200,86
0.27721,0,201,86
-0.17775,0,202,86
-0.31456,0,203,86
-0.4502,0,204,86
-0.68372,0,205,86
-0.27762,0,206,86
-0.11997,0,207,86
0.16592,0,208,86
0.082335,0,209,86
-0.052285,0,210,86
0.050942,0,211,86
0.20847,0,212,86
0.35775,0,213,86
0.36024,0,214,86
0.53127,0,215,86
0.60611,0,216,86
0.66801,0,217,86
0.64191,0,218,86
-0.13641,0,219,86
-0.21986,0,220,86
-0.5552,0,221,86
-0.34822,0,222,86
0.1995,0,223,86
0.21275,0,224,86
0.40893,0,225,86
0.27457,0,226,86
0.53375,0,227,86
-0.38447,0,228,86
-0.51394,0,229,86
-0.54527,0,230,86
-0.26062,0,231,86
0.088004,0,232,86
0.33489,0,233,86
-0.52,0,234,86
-0.35442,0,235,86
-0.64917,0,236,86
-0.48268,0,237,86
-0.17704,0,238,86
0.29278,0,239,86
1.0875,0,240,86
0.55973,0,241,86
0.55533,0,242,86
-0.13584,0,243,86
-0.26633,0,244,86
-0.68832,0,245,86
-0.74661,0,246,86
-0.31778,0,247,86
0.47735,0,248,86
1.7311,0,249,86
1.0659,0,250,86
0.541,0,251,86
0.012712,0,252,86
-0.30814,0,253,86
-0.56086,0,254,86
-0.32803,0,255,86
0.076782,0,0,86
-0.32327,0,1,86
-0.40705,0,2,86
-0.43679,0,3,86
-0.34589,0,4,86
-0.38254,0,5,86
0.1073,0,6,86
0.49506,0,7,86
0.39534,0,8,86
0.19482,0,9,86
-0.06129,0,10,86
-0.15569,0,11,86
-0.27755,0,12,86
-0.18546,0,13,86
-0.26529,0,14,86
-0.386,0,15,86
-0.49985,0,16,86
-0.71821,0,17,86
-0.36815,0,18,86
0.32196,0,19,86
-0.049788,0,20,86
-0.22747,0,21,86
-0.020654,0,22,86
0.19704,0,23,86
0.39328,0,24,86
0.31029,0,25,86
0.94145,0,26,86
0.08828,0,27,86
-0.11029,0,28,86
-0.39252,0,29,86
-0.075156,0,30,86
0.21818,0,31,86
0.45274,0,32,86
1.1267,0,33,86
-0.056888,0,34,86
0.020855,0,35,86
-0.10978,0,36,86
0.14918,0,37,86
0.40977,0,38,86
0.35236,0,39,86
0.57076,0,40,86
-0.63331,0,41,86
-0.30946,0,42,86
-0.42636,0,43,86
-0.038715,0,44,86
0.23892,0,45,86
0.36773,0,46,86
0.20545,0,47,86
-0.094187,0,48,86
0.089542,0,49,86
-0.93229,0,50,86
-1.0629,0,51,86
-0.84895,0,52,86
-0.29312,0,53,86
0.052954,0,54,86
0.36429,0,55,86
0.55092,0,56,86
0.091481,0,57,86
-0.29347,0,58,86
-0.46745,0,59,86
0.47914,0,60,86
0.57041,0,61,86
0.11463,0,62,86
-0.27419,0,63,86
-0.46147,0,64,86
0.07277,0,65,86
0.40543,0,66,86
0.36407,0,67,86
0.42061,0,68,86
0.27199,0,69,86
0.26431,0,70,86
0.46428,0,71,86
0.45747,0,72,86
0.38981,0,73,86
-0.528,0,74,86
-0.46691,0,75,86
-0.8737,0,76,86
-0.64895,0,77,86
-0.30961,0,78,86
0.097109,0,79,86
0.18184,0,80,86
-0.12782,0,81,86
-0.070615,0,82,86
-0.71141,0,83,86
-0.074158,0,84,86
0.57565,0,85,86
1.0024,0,86,86
0.58726,0,87,86
0.09253,0,88,86
0.52224,0,89,86
-0.29847,0,90,86
0.19815,0,91,86
-0.013614,0,92,86
-0.38635,0,93,86
-0.65532,0,94,86
-0.52128,0,95,86
0.18865,0,96,86
-0.55088,0,97,86
-0.55702,0,98,86
-1.0855,0,99,86
-0.62256,0,100,86
0.031589,0,101,86
0.66437,0,102,86
0.83196,0,103,86
0.38166,0,104,86
0.41946,0,105,86
-0.50843,0,106,86
-0.39531,0,107,86
-0.053389,0,108,86
0.47583,0,109,86
0.53945,0,110,86
0.60721,0,111,86
0.67453,0,112,86
0.17113,0,113,86
0.099464,0,114,86
-0.1439,0,115,86
-0.22297,0,116,86
-0.35722,0,117,86
-0.13865,0,118,86
-0.21551,0,119,86
-1.0209,0,120,86
-1.2807,0,121,86
-0.87848,0,122,86
0.43424,0,123,86
0.79103,0,124,86
0.92325,0,125,86
0.88211,0,126,86
0.89181,0,127,86
0.14951,0,128,86
-0.28374,0,129,86
-0.62051,0,130,86
-0.037277,0,131,86
0.10973,0,132,86
0.33164,0,133,86
0.43301,0,134,86
-0.071404,0,135,86
-0.1804,0,136,86
-0.6367,0,137,86
0.012385,0,138,86
-0.13123,0,139,86
0.23012,0,140,86
0.28691,0,141,86
0.11476,0,142,86
0.1245,0,143,86
0.16638,0,144,86
0.64686,0,145,86
-0.3032,0,146,86
-0.27944,0,147,86
-0.1329,0,148,86
-0.24378,0,149,86
-0.326,0,150,86
0.37479,0,151,86
-0.094108,0,152,86
0.73827,0,153,86
-0.029135,0,154,86
-0.20923,0,155,86
-0.8533,0,156,86
-0.82912,0,157,86
-0.30803,0,158,86
0.8694,0,159,86
0.2328,0,160,86
-0.044628,0,161,86
-0.20664,0,162,86
-0.70077,0,163,86
-0.42851,0,164,86
0.16134,0,165,86
0.80544,0,166,86
0.13302,0,167,86
-0.72563,0,168,86
-0.888,0,169,86
-0.6268,0,170,86
-0.24272,0,171,86
0.56654,0,172,86
0.63378,0,173,86
0.41382,0,174,86
-0.16294,0,175,86
-0.42328,0,176,86
-0.037839,0,177,86
0.062123,0,178,86
0.51206,0,179,86
0.32789,0,180,86
0.16877,0,181,86
0.42417,0,182,86
0.62026,0,183,86
0.68896,0,184,86
0.052783,0,185,86
-0.06885,0,186,86
-0.25649,0,187,86
0.21171,0,188,86
0.50127,0,189,86
0.48783,0,190,86
0.16531,0,191,86
-0.16522,0,192,86
0.29984,0,193,86
-0.024961,0,194,86
0.38006,0,195,86
0.091616,0,196,86
-0.14299,0,197,86
-0.70693,0,198,86
-0.66277,0,199,86
0.08805,0,200,86
-0.60911,0,201,86
-0.14414,0,202,86
-0.36839,0,203,86
-0.61638,0,204,86
-0.89382,0,205,86
-0.4968,0,206,86
0.40385,0,207,86
-0.10306,0,208,86
0.44157,0,209,86
-0.14644,0,210,86
-0.22242,0,211,86
-0.15815,0,212,86
0.14554,0,213,86
0.42576,0,214,86
0.12948,0,215,86
0.37296,0,216,86
-0.1959,0,217,86
-0.1513,0,218,86
-0.4013,0,219,86
-0.31163,0,220,86
0.014662,0,221,86
0.033605,0,222,86
0.42952,0,223,86
0.079001,0,224,86
0.13667,0,225,86
0.14843,0,226,86
-0.56653,0,227,86
-1.3543,0,228,86
-0.81384,0,229,86
0.31898,0,230,86
1.2443,0,231,86
1.3344,0,232,86
0.8995,0,233,86
0.42753,0,234,86
-0.18147,0,235,86
-0.21145,0,236,86
0.1648,0,237,86
-0.71502,0,238,86
-0.29005,0,239,86
0.36887,0,240,86
0.68714,0,241,86
0.48719,0,242,86
0.60538,0,243,86
0.46462,0,244,86
-0.14343,0,245,86
-0.20817,0,246,86
-0.17214,0,247,86
-0.10655,0,248,86
-0.5673,0,249,86
-0.51267,0,250,86
-0.78019,0,251,86
-0.44049,0,252,86
0.25705,0,253,86
0.54863,0,254,86
-0.099028,0,255,86
-0.62474,0,0,86
-0.15518,0,1,86
-0.86739,0,2,86
-0.29529,0,3,86
0.40224,0,4,86
0.7971,0,5,86
0.77141,0,6,86
0.84759,0,7,86
1.2599,0,8,86
0.1197,0,9,86
0.14836,0,10,86
-0.40516,0,11,86
-0.60973,0,12,86
-0.66913,0,13,86
-0.092013,0,14,86
0.45022,0,15,86
-0.46677,0,16,86
-0.040997,0,17,86
-0.45964,0,18,86
-0.18477,0,19,86
0.22092,0,20,86
0.42545,0,21,86
-0.097294,0,22,86
-0.36941,0,23,86
0.067117,0,24,86
-0.63856,0,25,86
-0.27267,0,26,86
0.109,0,27,86
-0.60778,0,28,86
-0.82067,0,29,86
-0.53758,0,30,86
0.437,0,31,86
0.59445,0,32,86
0.6456,0,33,86
0.46853,0,34,86
0.15396,0,35,86
-0.21199,0,36,86
-0.21042,0,37,86
-0.50256,0,38,86
-1.1454,0,39,86
-1.0373,0,40,86
-0.2017,0,41,86
0.7173,0,42,86
0.98714,0,43,86
1.112,0,44,86
0.75987,0,45,86
0.47725,0,46,86
0.56887,0,47,86
0.2523,0,48,86
0.032384,0,49,86
-0.48416,0,50,86
-0.27785,0,51,86
-0.20604,0,52,86
0.26744,0,53,86
0.37169,0,54,86
0.21058,0,55,86
-0.046665,0,56,86
-0.12938,0,57,86
0.64306,0,58,86
0.38553,0,59,86
0.68139,0,60,86
0.62724,0,61,86
0.64919,0,62,86
0.14911,0,63,86
-0.22,0,64,86
0.014572,0,65,86
-1.0052,0,66,86
-0.66358,0,67,86
-0.52552,0,68,86
-0.16854,0,69,86
0.073862,0,70,86
0.30584,0,71,86
0.59215,0,72,86
-0.53217,0,73,86
-0.25941,0,74,86
-0.77045,0,75,86
-0.68256,0,76,86
-0.70862,0,77,86
-0.53785,0,78,86
-0.36188,0,79,86
-0.39185,0,80,86
0.013105,0,81,86
-0.86779,0,82,86
-0.73863,0,83,86
-0.33556,0,84,86
-0.21403,0,85,86
-0.03113,0,86,86
0.46351,0,87,86
-0.048797,0,88,86
0.12676,0,89,86
0.56037,0,90,86
0.7371,0,91,86
0.34787,0,92,86
0.14517,0,93,86
-0.21771,0,94,86
-0.36627,0,95,86
-0.24465,0,96,86
0.067311,0,97,86
0.66131,0,98,86
1.0844,0,99,86
1.1773,0,100,86
0.8176,0,101,86
0.43906,0,102,86
0.14768,0,103,86
-0.050662,0,104,86
-0.066506,0,105,86
-0.38463,0,106,86
-0.082939,0,107,86
-0.45026,0,108,86
-0.41751,0,109,86
-0.355,0,110,86
-0.21835,0,111,86
-0.21388,0,112,86
-0.49367,0,113,86
-0.26726,0,114,86
-0.81753,0,115,86
-0.37153,0,116,86
-0.3229,0,117,86
-0.26345,0,118,86
-0.30937,0,119,86
-0.027135,0,120,86
0.93418,0,121,86
0.38631,0,122,86
0.93102,0,123,86
0.95196,0,124,86
1.1569,0,125,86
0.86114,0,126,86
0.27569,0,127,86
-0.065584,0,128,86
-1.334,0,129,86
-0.614,0,130,86
-0.31733,0,131,86
0.41748,0,132,86
0.56828,0,133,86
0.096674,0,134,86
-0.41897,0,135,86
-0.87476,0,136,86
0.18369,0,137,86
0.12437,0,138,86
0.15923,0,139,86
-0.057104,0,140,86
0.093812,0,141,86
0.28829,0,142,86
0.52979,0,143,86
0.3218,0,144,86
-0.40542,0,145,86
-0.5879,0,146,86
-0.32972,0,147,86
-0.040829,0,148,86
-0.09804,0,149,86
0.14506,0,150,86
0.17502,0,151,86
0.22197,0,152,86
0.16326,0,153,86
0.15254,0,154,86
-0.11119,0,155,86
-0.78544,0,156,86
-0.44863,0,157,86
-0.3805,0,158,86
-0.18165,0,159,86
-0.1199,0,160,86
-0.15059,0,161,86
-0.15068,0,162,86
0.13997,0,163,86
0.95611,0,164,86
0.76702,0,165,86
0.68507,0,166,86
0.43749,0,167,86
-0.24017,0,168,86
-1.0329,0,169,86
-1.2694,0,170,86
-0.15689,0,171,86
0.15053,0,172,86
0.83318,0,173,86
0.86908,0,174,86
0.7862,0,175,86
0.59634,0,176,86
0.14925,0,177,86
0.27926,0,178,86
-0.8245,0,179,86
-0.44652,0,180,86
-0.073075,0,181,86
0.40559,0,182,86
0.24403,0,183,86
-0.067704,0,184,86
0.18796,0,185,86
-0.59699,0,186,86
0.015888,0,187,86
-0.55992,0,188,86
-0.77974,0,189,86
-0.51526,0,190,86
-0.27715,0,191,86
-0.080972,0,192,86
-0.22989,0,193,86
0.38646,0,194,86
-0.2035,0,195,86
-0.15137,0,196,86
-0.13185,0,197,86
-0.31905,0,198,86
-0.57747,0,199,86
-0.47523,0,200,86
0.10863,0,201,86
-0.2657,0,202,86
-0.19657,0,203,86
0.029386,0,204,86
0.33647,0,205,86
0.34715,0,206,86
0.63758,0,207,86
0.64389,0,208,86
0.5965,0,209,86
0.19934,0,210,86
-0.11383,0,211,86
-0.41895,0,212,86
-0.37872,0,213,86
-0.18629,0,214,86
0.075959,0,215,86
0.13768,0,216,86
0.20285,0,217,86
-0.24424,0,218,86
-0.23435,0,219,86
-0.28401,0,220,86
0.13591,0,221,86
-0.039154,0,222,86
0.20151,0,223,86
0.60415,0,224,86
0.53787,0,225,86
0.77735,0,226,86
0.64167,0,227,86
0.83672,0,228,86
0.18855,0,229,86
-0.082399,0,230,86
-0.59993,0,231,86
-0.99763,0,232,86
-0.81042,0,233,86
0.15677,0,234,86
1.314,0,235,86
0.33738,0,236,86
0.49222,0,237,86
0.044724,0,238,86
0.24996,0,239,86
0.32125,0,240,86
0.49248,0,241,86
0.40467,0,242,86
-0.59937,0,243,86
-0.1593,0,244,86
-0.83831,0,245,86
-0.60186,0,246,86
-0.10937,0,247,86
-0.069365,0,248,86
0.054567,0,249,86
-0.11184,0,250,86
0.10439,0,251,86
-0.74854,0,252,86
-0.28839,0,253,86
0.15737,0,254,86
-0.20912,0,255,86
0.037292,0,0,86
0.51269,0,1,86
0.17285,0,2,86
-0.04064,0,3,86
-0.37453,0,4,86
-0.60258,0,5,86
-0.39657,0,6,86
-0.3448,0,7,86
-0.23951,0,8,86
-0.44381,0,9,86
-0.2961,0,10,86
-0.37366,0,11,86
-0.67503,0,12,86
-0.81637,0,13,86
-0.82935,0,14,86
-0.059585,0,15,86
0.22751,0,16,86
0.35239,0,17,86
0.2645,0,18,86
0.26567,0,19,86
0.18628,0,20,86
0.53417,0,21,86
0.57834,0,22,86
0.56078,0,23,86
0.32025,0,24,86
-0.10983,0,25,86
-0.12447,0,26,86
-0.093326,0,27,86
0.49736,0,28,86
0.45781,0,29,86
0.59538,0,30,86
0.40505,0,31,86
-0.027409,0,32,86
-0.25502,0,33,86
-0.36156,0,34,86
0.18139,0,35,86
0.037808,0,36,86
0.30576,0,37,86
0.060295,0,38,86
0.02871,0,39,86
-0.11797,0,40,86
-0.13936,0,41,86
0.75205,0,42,86
0.34593,0,43,86
1.0215,0,44,86
0.8066,0,45,86
0.70543,0,46,86
0.30968,0,47,86
0.045579,0,48,86
0.35132,0,49,86
-0.51755,0,50,86
-0.1529,0,51,86
-1.1323,0,52,86
-0.95542,0,53,86
-1.2241,0,54,86
-1.0102,0,55,86
-0.48316,0,56,86
0.16998,0,57,86
1.0761,0,58,86
-0.025964,0,59,86
-0.42606,0,60,86
-0.26523,0,61,86
-0.10002,0,62,86
0.33164,0,63,86
0.57429,0,64,86
0.91829,0,65,86
0.14828,0,66,86
-0.2473,0,67,86
-0.41264,0,68,86
-0.51758,0,69,86
-0.69581,0,70,86
-0.59945,0,71,86
-0.30922,0,72,86
-0.31257,0,73,86
-0.10289,0,74,86
0.13226,0,75,86
0.33808,0,76,86
0.16563,0,77,86
0.30076,0,78,86
0.10463,0,79,86
-0.47434,0,80,86
-0.70186,0,81,86
-0.57309,0,82,86
-0.3949,0,83,86
-0.030756,0,84,86
0.60387,0,85,86
0.25355,0,86,86
0.27056,0,87,86
0.2466,0,88,86
0.17051,0,89,86
0.38261,0,90,86
0.53527,0,91,86
0.95717,0,92,86
0.36607,0,93,86
0.48364,0,94,86
0.53586,0,95,86
0.49156,0,96,86
0.14814,0,97,86
-0.011773,0,98,86
0.48405,0,99,86
-0.36409,0,100,86
-0.075027,0,101,86
-0.28749,0,102,86
-0.17105,0,103,86
-0.38186,0,104,86
-0.38315,0,105,86
0.057957,0,106,86
-0.66606,0,107,86
0.19255,0,108,86
-0.21691,0,109,86
-0.10325,0,110,86
-0.37035,0,111,86
-0.54634,0,112,86
-0.6979,0,113,86
-0.31947,0,114,86
-1.0821,0,115,86
-0.71689,0,116,86
-0.020526,0,117,86
0.31602,0,118,86
0.32576,0,119,86
0.17563,0,120,86
0.48618,0,121,86
0.11821,0,122,86
0.10874,0,123,86
-0.026469,0,124,86
-0.14846,0,125,86
-0.5327,0,126,86
-0.11088,0,127,86
0.62621,0,128,86
0.99562,0,129,86
0.70661,0,130,86
0.16955,0,131,86
-0.017479,0,132,86
-0.34308,0,133,86
-0.14318,0,134,86
0.093307,0,135,86
0.35503,0,136,86
0.64337,0,137,86
0.38485,0,138,86
0.20735,0,139,86
-0.2637,0,140,86
-0.054849,0,141,86
-0.36924,0,142,86
-0.10174,0,143,86
0.14319,0,144,86
0.42348,0,145,86
0.65523,0,146,86
0.63713,0,147,86
1.1895,0,148,86
0.38922,0,149,86
0.14753,0,150,86
-0.043664,0,151,86
-0.0807,0,152,86
-0.45922,0,153,86
-0.34498,0,154,86
0.012268,0,155,86
-0.71586,0,156,86
-0.52707,0,157,86
-0.41392,0,158,86
-0.47831,0,159,86
-0.76248,0,160,86
-0.45785,0,161,86
0.64677,0,162,86
0.66742,0,163,86
1.1091,0,164,86
0.59134,0,165,86
0.14159,0,166,86
-0.077831,0,167,86
-0.42511,0,168,86
-0.40764,0,169,86
-0.46871,0,170,86
0.1535,0,171,86
-0.49451,0,172,86
-1.0418,0,173,86
-1.0626,0,174,86
-0.77846,0,175,86
-0.79607,0,176,86
-0.93118,0,177,86
-0.46902,0,178,86
-0.43537,0,179,86
-0.036274,0,180,86
0.61186,0,181,86
0.47797,0,182,86
0.85675,0,183,86
-0.12227,0,184,86
0.058142,0,185,86
-0.62652,0,186,86
-0.68885,0,187,86
-0.12864,0,188,86
0.30545,0,189,86
0.17116,0,190,86
0.34197,0,191,86
0.2055,0,192,86
-0.46089,0,193,86
-1.0114,0,194,86
-0.5972,0,195,86
0.013551,0,196,86
0.41354,0,197,86
0.82327,0,198,86
0.84094,0,199,86
0.70225,0,200,86
0.74663,0,201,86
0.45213,0,202,86
0.30223,0,203,86
0.42082,0,204,86
0.15084,0,205,86
0.30572,0,206,86
0.59372,0,207,86
0.53567,0,208,86
0.43544,0,209,86
-0.10467,0,210,86
-0.043321,0,211,86
-0.36777,0,212,86
0.15103,0,213,86
0.72079,0,214,86
0.78331,0,215,86
0.46408,0,216,86
0.17435,0,217,86
0.49134,0,218,86
-0.73365,0,219,86
-0.47669,0,220,86
-0.44471,0,221,86
-0.14445,0,222,86
0.10217,0,223,86
0.24087,0,224,86
0.41567,0,225,86
-0.54641,0,226,86
0.077766,0,227,86
-0.24249,0,228,86
-0.13069,0,229,86
0.056039,0,230,86
-0.22885,0,231,86
-0.061022,0,232,86
0.10991,0,233,86
0.84419,0,234,86
-0.094817,0,235,86
-0.40176,0,236,86
-0.30911,0,237,86
-0.48019,0,238,86
-0.41492,0,239,86
-0.082609,0,240,86
0.10116,0,241,86
-0.48752,0,242,86
-0.62653,0,243,86
-0.30206,0,244,86
-0.05142,0,245,86
-0.43225,0,246,86
-0.49591,0,247,86
-0.29284,0,248,86
-0.084428,0,249,86
-0.35923,0,250,86
-0.53183,0,251,86
-0.30739,0,252,86
-0.13923,0,253,86
0.55691,0,254,86
0.66527,0,255,86
0.62537,0,0,86
0.58392,0,1,86
0.25823,0,2,86
0.13324,0,3,86
-0.12477,0,4,86
0.26008,0,5,86
0.091185,0,6,86
0.40967,0,7,86
0.45078,0,8,86
-0.084312,0,9,86
-0.46609,0,10,86
-0.50772,0,11,86
0.25084,0,12,86
-0.18832,0,13,86
0.13019,0,14,86
0.19504,0,15,86
0.32821,0,16,86
-0.11598,0,17,86
0.4151,0,18,86
-0.65006,0,19,86
-0.44394,0,20,86
-0.39008,0,21,86
0.062921,0,22,86
0.21673,0,23,86
0.26692,0,24,86
0.52795,0,25,86
-0.32039,0,26,86
0.31357,0,27,86
-0.58787,0,28,86
-0.74935,0,29,86
-0.38296,0,30,86
-0.17162,0,31,86
-0.065247,0,32,86
-0.022436,0,33,86
0.55766,0,34,86
-0.34872,0,35,86
-0.28515,0,36,86
0.030145,0,37,86
-0.1272,0,38,86
-0.20826,0,39,86
-0.043291,0,40,86
0.71416,0,41,86
0.36591,0,42,86
-0.12334,0,43,86
-0.20422,0,44,86
-0.38794,0,45,86
-1.0103,0,46,86
-0.88688,0,47,86
-0.44951,0,48,86
0.19999,0,49,86
0.52587,0,50,86
0.77733,0,51,86
0.72592,0,52,86
0.41053,0,53,86
0.41376,0,54,86
0.21656,0,55,86
0.2144,0,56,86
0.60106,0,57,86
0.42195,0,58,86
0.64705,0,59,86
0.5423,0,60,86
0.52618,0,61,86
-0.26919,0,62,86
-0.5338,0,63,86
-0.40375,0,64,86
-0.34044,0,65,86
0.17016,0,66,86
0.23048,0,67,86
0.65946,0,68,86
0.068957,0,69,86
-0.21142,0,70,86
-0.45922,0,71,86
-0.17458,0,72,86
-0.10349,0,73,86
0.11754,0,74,86
0.57199,0,75,86
-0.37506,0,76,86
0.15617,0,77,86
0.03146,0,78,86
-0.15538,0,79,86
-0.54593,0,80,86
-0.25328,0,81,86
0.60733,0,82,86
0.13476,0,83,86
0.88909,0,84,86
0.20648,0,85,86
0.029038,0,86,86
0.19394,0,87,86
-0.039648,0,88,86
-0.2521,0,89,86
-0.64524,0,90,86
-0.1567,0,91,86
-0.88334,0,92,86
-0.66105,0,93,86
-0.19562,0,94,86
-0.092016,0,95,86
-0.15747,0,96,86
-0.17611,0,97,86
-0.010895,0,98,86
-0.42763,0,99,86
0.18142,0,100,86
0.1186,0,101,86
-0.40121,0,102,86
-0.53019,0,103,86
-0.42214,0,104,86
-0.15273,0,105,86
0.12627,0,106,86
0.30911,0,107,86
0.29408,0,108,86
-0.41074,0,109,86
-0.30842,0,110,86
-0.07262,0,111,86
0.21054,0,112,86
0.77141,0,113,86
0.49655,0,114,86
0.023927,0,115,86
-0.35209,0,116,86
0.13592,0,117,86
0.33929,0,118,86
0.43358,0,119,86
0.51923,0,120,86
0.45393,0,121,86
0.063585,0,122,86
-0.2039,0,123,86
0.34757,0,124,86
-0.3123,0,125,86
-0.077632,0,126,86
0.12015,0,127,86
0.24512,0,128,86
0.10885,0,129,86
0.73708,0,130,86
-0.17963,0,131,86
0.035883,0,132,86
0.13218,0,133,86
0.024638,0,134,86
-0.043174,0,135,86
-0.04445,0,136,86
-0.18358,0,137,86
-0.18048,0,138,86
-0.11241,0,139,86
-0.23074,0,140,86
-0.25824,0,141,86
-0.19043,0,142,86
-0.37462,0,143,86
-0.2073,0,144,86
0.27735,0,145,86
-0.48262,0,146,86
-0.26588,0,147,86
-0.19549,0,148,86
-0.22612,0,149,86
-0.32672,0,150,86
-0.36492,0,151,86
0.26566,0,152,86
-0.14832,0,153,86
0.40543,0,154,86
0.39772,0,155,86
0.31694,0,156,86
0.2158,0,157,86
-0.2633,0,158,86
-0.60579,0,159,86
-0.51898,0,160,86
0.12842,0,161,86
-0.23569,0,162,86
0.049555,0,163,86
0.71733,0,164,86
0.76688,0,165,86
0.63857,0,166,86
0.49975,0,167,86
0.63719,0,168,86
-0.22519,0,169,86
-0.81135,0,170,86
-0.95646,0,171,86
-0.62434,0,172,86
-0.18927,0,173,86
0.42836,0,174,86
0.80421,0,175,86
0.37858,0,176,86
-0.079751,0,177,86
-0.48741,0,178,86
-0.53464,0,179,86
-0.5204,0,180,86
0.070557,0,181,86
0.60693,0,182,86
0.71726,0,183,86
0.16221,0,184,86
-0.078813,0,185,86
0.040923,0,186,86
-0.075025,0,187,86
0.51295,0,188,86
0.084189,0,189,86
-0.091831,0,190,86
-0.24168,0,191,86
-0.54559,0,192,86
-0.80886,0,193,86
-1.0303,0,194,86
-0.50982,0,195,86
-0.52328,0,196,86
0.26511,0,197,86
0.72826,0,198,86
0.7492,0,199,86
0.56573,0,200,86
0.81017,0,201,86
1.2604,0,202,86
-0.068766,0,203,86
-0.021862,0,204,86
0.12924,0,205,86
0.73158,0,206,86
0.78768,0,207,86
0.65317,0,208,86
0.70265,0,209,86
-0.23182,0,210,86
0.22318,0,211,86
-0.21807,0,212,86
-0.37041,0,213,86
-0.26864,0,214,86
-0.4659,0,215,86
-0.27399,0,216,86
-0.28054,0,217,86
0.55782,0,218,86
0.12745,0,219,86
-0.15303,0,220,86
-0.37657,0,221,86
-0.70103,0,222,86
-0.63144,0,223,86
-0.34175,0,224,86
0.11397,0,225,86
-0.23328,0,226,86
-0.69519,0,227,86
-0.83602,0,228,86
-1.0297,0,229,86
-1.3731,0,230,86
-1.243,0,231,86
-0.75905,0,232,86
0.029631,0,233,86
0.80603,0,234,86
1.1595,0,235,86
1.2143,0,236,86
0.70526,0,237,86
0.45266,0,238,86
-0.056209,0,239,86
-0.41994,0,240,86
-0.55004,0,241,86
-0.62729,0,242,86
-0.48715,0,243,86
-0.38585,0,244,86
0.19576,0,245,86
0.035472,0,246,86
-0.054344,0,247,86
0.15776,0,248,86
-0.075906,0,249,86
-0.046453,0,250,86
-0.016879,0,251,86
0.79271,0,252,86
0.22894,0,253,86
0.23933,0,254,86
0.16668,0,255,86
0.4462,0,0,86
0.45628,0,1,86
0.27037,0,2,86
0.88681,0,3,86
0.14485,0,4,86
-0.23956,0,5,86
0.10161,0,6,86
0.23789,0,7,86
0.43265,0,8,86
1.0547,0,9,86
0.40077,0,10,86
0.88308,0,11,86
0.19719,0,12,86
-0.056027,0,13,86
-0.1913,0,14,86
-0.53369,0,15,86
-0.59487,0,16,86
-0.42366,0,17,86
0.36661,0,18,86
-0.2513,0,19,86
-0.2628,0,20,86
0.031303,0,21,86
-0.1979,0,22,86
-0.52418,0,23,86
-0.75432,0,24,86
-0.27099,0,25,86
-0.6292,0,26,86
-0.31535,0,27,86
0.056589,0,28,86
0.27437,0,29,86
0.14919,0,30,86
0.14352,0,31,86
0.076275,0,32,86
-0.25038,0,33,86
-0.34456,0,34,86
-0.34391,0,35,86
-0.40105,0,36,86
-0.47654,0,37,86
-0.11876,0,38,86
-0.035797,0,39,86
0.13173,0,40,86
0.53627,0,41,86
0.85554,0,42,86
1.0515,0,43,86
0.66934,0,44,86
0.79385,0,45,86
0.077428,0,46,86
-0.29596,0,47,86
-0.64892,0,48,86
-0.68638,0,49,86
-0.53365,0,50,86
-0.3884,0,51,86
0.60935,0,52,86
0.28586,0,53,86
0.52225,0,54,86
0.52393,0,55,86
0.41352,0,56,86
0.094034,0,57,86
-0.04869,0,58,86
0.36548,0,59,86
-0.67675,0,60,86
-0.37941,0,61,86
-0.41844,0,62,86
-0.21522,0,63,86
-0.33168,0,64,86
-0.11298,0,65,86
0.46311,0,66,86
0.085168,0,67,86
0.84813,0,68,86
0.47334,0,69,86
0.40191,0,70,86
0.36001,0,71,86
-0.29741,0,72,86
-0.68028,0,73,86
-0.60195,0,74,86
0.42282,0,75,86
-0.49106,0,76,86
-1.0188,0,77,86
-0.72545,0,78,86
-0.63755,0,79,86
-0.27429,0,80,86
0.34378,0,81,86
1.1605,0,82,86
0.47124,0,83,86
-0.10331,0,84,86
-0.39669,0,85,86
-0.38084,0,86,86
-0.52157,0,87,86
-0.25695,0,88,86
-0.046913,0,89,86
-0.052747,0,90,86
0.011059,0,91,86
-0.13119,0,92,86
-0.38846,0,93,86
-0.81831,0,94,86
-0.60735,0,95,86
-0.43018,0,96,86
-0.27801,0,97,86
0.17286,0,98,86
0.47748,0,99,86
0.58843,0,100,86
0.75678,0,101,86
0.95742,0,102,86
0.89032,0,103,86
0.81643,0,104,86
0.65116,0,105,86
-0.28643,0,106,86
-0.93315,0,107,86
-1.2101,0,108,86
-0.25043,0,109,86
-0.18887,0,110,86
0.49791,0,111,86
-0.15977,0,112,86
0.012571,0,113,86
0.078942,0,114,86
0.41573,0,115,86
0.60392,0,116,86
0.65095,0,117,86
0.74844,0,118,86
0.1152,0,119,86
-0.066822,0,120,86
-0.35331,0,121,86
-0.52728,0,122,86
-0.68581,0,123,86
-0.32652,0,124,86
-0.22659,0,125,86
-0.077558,0,126,86
0.27952,0,127,86
0.13822,0,128,86
-0.070028,0,129,86
-0.27816,0,130,86
-0.18714,0,131,86
-0.017835,0,132,86
-0.060533,0,133,86
-0.27765,0,134,86
-0.37591,0,135,86
0.039291,0,136,86
-0.41498,0,137,86
-0.43439,0,138,86
-0.28209,0,139,86
0.15277,0,140,86
0.22363,0,141,86
0.22118,0,142,86
0.89927,0,143,86
0.40292,0,144,86
0.37266,0,145,86
0.31289,0,146,86
0.60077,0,147,86
0.62499,0,148,86
0.75627,0,149,86
0.92955,0,150,86
-0.30715,0,151,86
-0.29285,0,152,86
-0.59981,0,153,86
-0.28864,0,154,86
-0.38495,0,155,86
-0.16389,0,156,86
0.46705,0,157,86
-0.070397,0,158,86
0.45743,0,159,86
-0.40989,0,160,86
-0.51747,0,161,86
-0.48531,0,162,86
-0.55456,0,163,86
-0.6902,0,164,86
-0.7609,0,165,86
0.35222,0,166,86
0.017227,0,167,86
0.02408,0,168,86
0.086515,0,169,86
-0.094173,0,170,86
-0.16233,0,171,86
-0.40722,0,172,86
0.040828,0,173,86
-0.30981,0,174,86
-0.15535,0,175,86
0.13732,0,176,86
0.70925,0,177,86
0.5955,0,178,86
0.13913,0,179,86
-0.36512,0,180,86
-0.50935,0,181,86
-0.44374,0,182,86
-0.22073,0,183,86
0.11619,0,184,86
-0.077329,0,185,86
0.11821,0,186,86
0.10551,0,187,86
0.15067,0,188,86
0.15754,0,189,86
-0.1509,0,190,86
0.050742,0,191,86
-0.030342,0,192,86
0.68159,0,193,86
0.63007,0,194,86
0.52291,0,195,86
0.48386,0,196,86
0.2302,0,197,86
0.096242,0,198,86
-0.17568,0,199,86
0.15591,0,200,86
-0.45205,0,201,86
-0.49457,0,202,86
-0.317,0,203,86
0.15964,0,204,86
0.57187,0,205,86
1.0168,0,206,86
1.7131,0,207,86
0.87437,0,208,86
0.76441,0,209,86
0.58687,0,210,86
0.061154,0,211,86
-0.24886,0,212,86
-0.44903,0,213,86
0.14499,0,214,86
-0.28348,0,215,86
1.2138,0,216,86
0.53773,0,217,86
0.49505,0,218,86
-0.073547,0,219,86
-0.51433,0,220,86
-0.40135,0,221,86
-0.14244,0,222,86
0.63917,0,223,86
0.02216,0,224,86
-0.17022,0,225,86
-0.19469,0,226,86
-0.43816,0,227,86
-0.59615,0,228,86
-0.71288,0,229,86
-0.26342,0,230,86
-0.92326,0,231,86
-1.155,0,232,86
-1.2822,0,233,86
-1.0401,0,234,86
-0.99633,0,235,86
-0.85452,0,236,86
-0.89685,0,237,86
-1.1361,0,238,86
-0.96372,0,239,86
-0.35898,0,240,86
0.012181,0,241,86
-0.060124,0,242,86
-0.37704,0,243,86
-1.002,0,244,86
-0.9802,0,245,86
-0.41429,0,246,86
0.037297,0,247,86
0.42067,0,248,86
0.2887,0,249,86
0.55568,0,250,86
0.082535,0,251,86
-0.50838,0,252,86
-0.69956,0,253,86
-0.34195,0,254,86
0.19779,0,255,86
0.52579,0,0,86
1.0108,0,1,86
0.31457,0,2,86
0.16661,0,3,86
0.088809,0,4,86
0.20348,0,5,86
0.072125,0,6,86
0.21574,0,7,86
1.138,0,8,86
0.44504,0,9,86
0.78006,0,10,86
0.54187,0,11,86
0.55069,0,12,86
0.40052,0,13,86
0.33307,0,14,86
0.3973,0,15,86
-0.18307,0,16,86
0.29981,0,17,86
-0.23758,0,18,86
0.23625,0,19,86
0.61911,0,20,86
0.65255,0,21,86
0.86038,0,22,86
0.76052,0,23,86
1.0881,0,24,86
0.24275,0,25,86
0.10524,0,26,86
0.24541,0,27,86
0.02776,0,28,86
0.08705,0,29,86
0.11459,0,30,86
0.39386,0,31,86
0.062705,0,32,86
-0.022904,0,33,86
0.19808,0,34,86
0.28251,0,35,86
-0.071949,0,36,86
0.10495,0,37,86
0.079944,0,38,86
0.21609,0,39,86
0.23168,0,40,86
0.29954,0,41,86
0.33891,0,42,86
-0.11731,0,43,86
-0.27215,0,44,86
-0.41386,0,45,86
-0.24,0,46,86
-0.02862,0,47,86
-0.11179,0,48,86
-0.14444,0,49,86
-0.69396,0,50,86
-0.4202,0,51,86
-0.57993,0,52,86
-0.18793,0,53,86
0.16395,0,54,86
0.4835,0,55,86
0.42912,0,56,86
0.062191,0,57,86
0.40544,0,58,86
-0.49396,0,59,86
-0.46593,0,60,86
-0.40516,0,61,86
0.011034,0,62,86
-0.087,0,63,86
0.16749,0,64,86
-0.72725,0,65,86
-0.29295,0,66,86
0.015577,0,67,86
0.20199,0,68,86
0.25363,0,69,86
0.46605,0,70,86
0.67159,0,71,86
-0.60708,0,72,86
-0.4548,0,73,86
-1.0736,0,74,86
-1.1072,0,75,86
-0.76797,0,76,86
-0.48582,0,77,86
-0.24481,0,78,86
-0.11595,0,79,86
0.36037,0,80,86
-0.31505,0,81,86
-0.19491,0,82,86
0.12774,0,83,86
0.10663,0,84,86
0.0562,0,85,86
-0.20869,0,86,86
0.1019,0,87,86
-0.41972,0,88,86
-0.37999,0,89,86
-0.52718,0,90,86
-0.53409,0,91,86
-0.81261,0,92,86
-0.37418,0,93,86
0.073646,0,94,86
0.20723,0,95,86
0.11295,0,96,86
-0.14543,0,97,86
-0.51096,0,98,86
-1.6473,0,99,86
-1.2356,0,100,86
-0.25258,0,101,86
0.77614,0,102,86
1.3483,0,103,86
1.1383,0,104,86
0.59644,0,105,86
-0.16288,0,106,86
-0.043783,0,107,86
-0.25721,0,108,86
0.1468,0,109,86
0.21866,0,110,86
0.1053,0,111,86
0.15685,0,112,86
0.34313,0,113,86
-0.3056,0,114,86
0.068274,0,115,86
0.45894,0,116,86
0.86171,0,117,86
0.86513,0,118,86
0.71759,0,119,86
1.0261,0,120,86
-0.19492,0,121,86
-0.26635,0,122,86
-0.23513,0,123,86
-0.55158,0,124,86
-0.84868,0,125,86
-0.33251,0,126,86
0.72541,0,127,86
0.55978,0,128,86
1.3537,0,129,86
0.59704,0,130,86
0.40619,0,131,86
0.28356,0,132,86
-0.48262,0,133,86
-0.34427,0,134,86
-0.089071,0,135,86
0.24288,0,136,86
-0.53037,0,137,86
-0.077076,0,138,86
0.50048,0,139,86
0.89422,0,140,86
0.7993,0,141,86
1.1098,0,142,86
1.2633,0,143,86
0.16708,0,144,86
-0.51584,0,145,86
-0.5371,0,146,86
-0.31907,0,147,86
-0.16127,0,148,86
-0.10423,0,149,86
-0.18317,0,150,86
-0.32117,0,151,86
-0.027803,0,152,86
0.25806,0,153,86
0.36293,0,154,86
0.14432,0,155,86
0.24114,0,156,86
0.061748,0,157,86
-0.017113,0,158,86
0.045875,0,159,86
-0.059758,0,160,86
-0.16258,0,161,86
-0.71466,0,162,86
-0.38642,0,163,86
-0.70123,0,164,86
-0.57292,0,165,86
-0.24978,0,166,86
-0.29001,0,167,86
-0.34346,0,168,86
-0.48952,0,169,86
0.06745,0,170,86
-0.78805,0,171,86
-0.75068,0,172,86
-0.40856,0,173,86
-0.068973,0,174,86
-0.41683,0,175,86
-0.70944,0,176,86
0.074525,0,177,86
-0.34982,0,178,86
0.58877,0,179,86
1.1719,0,180,86
1.2969,0,181,86
1.2603,0,182,86
1.07,0,183,86
0.94083,0,184,86
-0.1516,0,185,86
0.235,0,186,86
-0.46075,0,187,86
-0.38187,0,188,86
-0.20698,0,189,86
-0.34561,0,190,86
-0.44547,0,191,86
-0.46279,0,192,86
0.082452,0,193,86
-0.77207,0,194,86
-0.79312,0,195,86
-0.60113,0,196,86
-0.78613,0,197,86
-0.73075,0,198,86
-0.60254,0,199,86
0.26656,0,200,86
-0.19025,0,201,86
-0.28085,0,202,86
-0.19065,0,203,86
0.16445,0,204,86
0.15076,0,205,86
0.38225,0,206,86
0.48829,0,207,86
0.42409,0,208,86
0.13863,0,209,86
-0.14894,0,210,86
-0.44841,0,211,86
-0.71427,0,212,86
-0.23627,0,213,86
-0.01507,0,214,86
0.20227,0,215,86
0.60211,0,216,86
0.53258,0,217,86
0.22348,0,218,86
-0.19261,0,219,86
-0.56378,0,220,86
-0.15812,0,221,86
0.37223,0,222,86
0.73256,0,223,86
0.93222,0,224,86
0.7618,0,225,86
0.8299,0,226,86
-0.018985,0,227,86
0.31407,0,228,86
0.63771,0,229,86
0.53963,0,230,86
0.37376,0,231,86
0.24371,0,232,86
0.41357,0,233,86
-0.6462,0,234,86
-0.25169,0,235,86
-0.068712,0,236,86
0.081766,0,237,86
-0.40271,0,238,86
-0.34406,0,239,86
0.12406,0,240,86
-0.58097,0,241,86
-0.17981,0,242,86
-0.46201,0,243,86
-0.41513,0,244,86
-0.29757,0,245,86
-0.81883,0,246,86
-0.72369,0,247,86
-0.26503,0,248,86
1.1451,0,249,86
0.9106,0,250,86
0.90947,0,251,86
0.84206,0,252,86
0.21481,0,253,86
-0.4513,0,254,86
-0.43863,0,255,86
0.032191,0,0,86
-0.21416,0,1,86
-0.10024,0,2,86
0.086553,0,3,86
0.19202,0,4,86
0.034684,0,5,86
-0.21737,0,6,86
-0.25839,0,7,86
-0.38202,0,8,86
-0.22013,0,9,86
-0.068994,0,10,86
0.27568,0,11,86
0.16944,0,12,86
-0.46692,0,13,86
-0.72414,0,14,86
-0.42201,0,15,86
-0.20706,0,16,86
-0.11444,0,17,86
-0.2537,0,18,86
-0.1426,0,19,86
-0.32391,0,20,86
-0.13475,0,21,86
0.17762,0,22,86
0.42873,0,23,86
0.54753,0,24,86
0.32881,0,25,86
0.57104,0,26,86
0.046988,0,27,86
0.55217,0,28,86
0.47069,0,29,86
0.27966,0,30,86
0.12308,0,31,86
0.31706,0,32,86
0.74059,0,33,86
-0.24841,0,34,86
0.04412,0,35,86
0.087423,0,36,86
-0.32754,0,37,86
-1.4304,0,38,86
-1.5444,0,39,86
-0.1509,0,40,86
0.11079,0,41,86
1.1782,0,42,86
0.81037,0,43,86
0.42811,0,44,86
0.22217,0,45,86
-0.13447,0,46,86
0.039108,0,47,86
0.049406,0,48,86
0.70201,0,49,86
-0.04703,0,50,86
-0.31839,0,51,86
-0.68702,0,52,86
-0.96441,0,53,86
-0.77087,0,54,86
-0.66373,0,55,86
0.30886,0,56,86
-0.05513,0,57,86
0.051201,0,58,86
0.25271,0,59,86
0.034842,0,60,86
-0.18154,0,61,86
-0.21644,0,62,86
0.017348,0,63,86
-0.71197,0,64,86
-0.71226,0,65,86
-0.24964,0,66,86
0.22571,0,67,86
0.13492,0,68,86
-0.14076,0,69,86
-0.050738,0,70,86
0.23223,0,71,86
0.24644,0,72,86
0.28272,0,73,86
-0.12255,0,74,86
-0.18935,0,75,86
-0.29723,0,76,86
-0.1347,0,77,86
-0.016369,0,78,86
0.28577,0,79,86
0.38782,0,80,86
0.39901,0,81,86
0.72726,0,82,86
0.22782,0,83,86
-0.13167,0,84,86
0.032923,0,85,86
0.29259,0,86,86
0.36424,0,87,86
0.38009,0,88,86
1.1496,0,89,86
0.67358,0,90,86
0.64366,0,91,86
0.52996,0,92,86
0.47146,0,93,86
-0.099109,0,94,86
-0.30196,0,95,86
0.12724,0,96,86
-0.62891,0,97,86
-0.11448,0,98,86
-0.11361,0,99,86
0.099876,0,100,86
0.12753,0,101,86
-0.051447,0,102,86
0.18854,0,103,86
-0.49906,0,104,86
0.0883,0,105,86
-0.38053,0,106,86
-0.45782,0,107,86
-0.53081,0,108,86
-0.69004,0,109,86
-0.69635,0,110,86
-0.46341,0,111,86
0.40127,0,112,86
-0.14247,0,113,86
-0.64941,0,114,86
-0.50977,0,115,86
-0.38791,0,116,86
0.092801,0,117,86
0.3478,0,118,86
0.41614,0,119,86
0.069242,0,120,86
0.041685,0,121,86
0.066331,0,122,86
-0.12055,0,123,86
-0.53659,0,124,86
-0.27786,0,125,86
0.25271,0,126,86
0.73752,0,127,86
0.81663,0,128,86
0.5656,0,129,86
0.39636,0,130,86
0.064051,0,131,86
0.22566,0,132,86
0.18646,0,133,86
0.12466,0,134,86
0.20629,0,135,86
0.057222,0,136,86
-0.058507,0,137,86
-0.43179,0,138,86
-0.30949,0,139,86
-0.99022,0,140,86
-0.81421,0,141,86
-0.2577,0,142,86
0.3188,0,143,86
0.38104,0,144,86
0.27455,0,145,86
-0.58078,0,146,86
-0.33762,0,147,86
0.38877,0,148,86
0.77573,0,149,86
0.48274,0,150,86
0.42523,0,151,86
0.80178,0,152,86
-0.37865,0,153,86
-0.30841,0,154,86
-0.87474,0,155,86
-0.52907,0,156,86
-0.25501,0,157,86
0.33511,0,158,86
1.1058,0,159,86
0.47184,0,160,86
0.74539,0,161,86
-0.49119,0,162,86
-1.2434,0,163,86
-1.2776,0,164,86
-1.2111,0,165,86
-0.60469,0,166,86
-0.066052,0,167,86
1.0156,0,168,86
0.48516,0,169,86
0.43948,0,170,86
0.26726,0,171,86
-0.54709,0,172,86
-0.9588,0,173,86
-0.78462,0,174,86
-0.082212,0,175,86
-0.35582,0,176,86
-0.42759,0,177,86
-0.13394,0,178,86
0.13046,0,179,86
-0.041181,0,180,86
0.034801,0,181,86
-0.11549,0,182,86
-0.21997,0,183,86
0.019862,0,184,86
0.32734,0,185,86
0.4555,0,186,86
0.98019,0,187,86
1.1253,0,188,86
0.91879,0,189,86
0.51006,0,190,86
0.18575,0,191,86
0.014592,0,192,86
-0.39756,0,193,86
-0.17056,0,194,86
-0.22583,0,195,86
0.18408,0,196,86
0.37633,0,197,86
0.12512,0,198,86
0.084459,0,199,86
-0.059276,0,200,86
0.45784,0,201,86
0.14831,0,202,86
0.21639,0,203,86
-0.067337,0,204,86
-0.069872,0,205,86
-0.24381,0,206,86
-0.040372,0,207,86
0.67472,0,208,86
-0.083786,0,209,86
0.37747,0,210,86
0.33588,0,211,86
0.5568,0,212,86
0.38329,0,213,86
0.15395,0,214,86
0.24461,0,215,86
-0.65358,0,216,86
0.029038,0,217,86
-0.41165,0,218,86
-0.15796,0,219,86
0.13367,0,220,86
0.011801,0,221,86
-0.07306,0,222,86
-0.15329,0,223,86
0.0777,0,224,86
-0.58003,0,225,86
-0.47168,0,226,86
-0.082242,0,227,86
-0.25536,0,228,86
-0.75704,0,229,86
-0.63756,0,230,86
-0.35623,0,231,86
-0.40197,0,232,86
0.045182,0,233,86
0.5369,0,234,86
0.92381,0,235,86
0.53313,0,236,86
0.46737,0,237,86
0.18136,0,238,86
0.087151,0,239,86
0.022112,0,240,86
-0.023212,0,241,86
-0.27495,0,242,86
-0.054632,0,243,86
-0.34822,0,244,86
-0.35365,0,245,86
-0.30614,0,246,86
-0.25117,0,247,86
-0.18305,0,248,86
-0.4739,0,249,86
0.07222,0,250,86
-0.37969,0,251,86
-0.12312,0,252,86
-0.14602,0,253,86
-0.18876,0,254,86
-0.5183,0,255,86
-0.41327,0,0,86
0.23229,0,1,86
-0.4259,0,2,86
-0.12485,0,3,86
-0.14411,0,4,86
-0.067439,0,5,86
-0.19402,0,6,86
0.037767,0,7,86
0.28564,0,8,86
-0.61104,0,9,86
-0.10005,0,10,86
0.054206,0,11,86
0.6255,0,12,86
1.1798,0,13,86
0.78294,0,14,86
0.57848,0,15,86
0.1482,0,16,86
0.68965,0,17,86
0.14555,0,18,86
0.037462,0,19,86
-0.35082,0,20,86
-0.47309,0,21,86
-0.25737,0,22,86
0.51686,0,23,86
0.12404,0,24,86
0.139,0,25,86
0.021404,0,26,86
-0.21407,0,27,86
-0.50815,0,28,86
-0.49296,0,29,86
-0.32117,0,30,86
-0.079827,0,31,86
0.15086,0,32,86
0.57593,0,33,86
0.65327,0,34,86
0.56139,0,35,86
0.37983,0,36,86
-0.06276,0,37,86
-0.31572,0,38,86
-0.24725,0,39,86
-0.17859,0,40,86
-0.092824,0,41,86
-0.18891,0,42,86
0.10158,0,43,86
0.36859,0,44,86
0.50564,0,45,86
0.53707,0,46,86
0.33369,0,47,86
0.20795,0,48,86
-0.14951,0,49,86
-0.034704,0,50,86
-0.38973,0,51,86
-0.22662,0,52,86
0.042204,0,53,86
0.011171,0,54,86
-0.052629,0,55,86
-0.057874,0,56,86
0.2312,0,57,86
-0.66019,0,58,86
-0.50348,0,59,86
-0.24681,0,60,86
-0.18626,0,61,86
-0.74967,0,62,86
-0.87119,0,63,86
-0.12246,0,64,86
-0.55888,0,65,86
0.068498,0,66,86
0.39273,0,67,86
0.34948,0,68,86
0.6267,0,69,86
1.2794,0,70,86
0.62661,0,71,86
1.1712,0,72,86
0.2432,0,73,86
-0.22928,0,74,86
-0.69147,0,75,86
-0.97764,0,76,86
-0.61244,0,77,86
-0.13053,0,78,86
0.62922,0,79,86
-0.10476,0,80,86
-0.27485,0,81,86
-0.37749,0,82,86
-0.52082,0,83,86
-0.37356,0,84,86
-0.42247,0,85,86
0.061085,0,86,86
-0.02057,0,87,86
0.047269,0,88,86
0.15475,0,89,86
0.27308,0,90,86
0.25027,0,91,86
0.061131,0,92,86
-0.012647,0,93,86
0.16719,0,94,86
0.42814,0,95,86
0.40329,0,96,86
0.22119,0,97,86
0.46339,0,98,86
0.5258,0,99,86
0.22638,0,100,86
-0.13369,0,101,86
-0.58425,0,102,86
-0.99505,0,103,86
-1.4057,0,104,86
-0.84837,0,105,86
-0.47337,0,106,86
0.24181,0,107,86
1.1019,0,108,86
1.2445,0,109,86
0.6746,0,110,86
0.078198,0,111,86
0.1411,0,112,86
-0.28446,0,113,86
0.20659,0,114,86
0.61191,0,115,86
0.47246,0,116,86
-0.097224,0,117,86
-0.2822,0,118,86
0.22109,0,119,86
-0.60143,0,120,86
-0.12794,0,121,86
0.18394,0,122,86
0.415,0,123,86
0.24878,0,124,86
0.16507,0,125,86
0.58057,0,126,86
-0.33804,0,127,86
0.049733,0,128,86
-0.20133,0,129,86
-0.31732,0,130,86
-0.26097,0,131,86
-0.58784,0,132,86
-0.64821,0,133,86
-0.62742,0,134,86
0.18769,0,135,86
-0.25607,0,136,86
0.22751,0,137,86
0.12496,0,138,86
-0.50136,0,139,86
-0.97236,0,140,86
-0.93303,0,141,86
0.20305,0,142,86
0.51987,0,143,86
0.70649,0,144,86
0.4775,0,145,86
0.076268,0,146,86
-0.35167,0,147,86
-0.058173,0,148,86
0.48035,0,149,86
0.51029,0,150,86
0.40978,0,151,86
0.10288,0,152,86
-0.14139,0,153,86
-0.37428,0,154,86
-0.16066,0,155,86
-0.043061,0,156,86
0.094694,0,157,86
0.30624,0,158,86
0.25479,0,159,86
0.26117,0,160,86
0.097992,0,161,86
0.39507,0,162,86
-0.24847,0,163,86
-0.56326,0,164,86
-0.60832,0,165,86
-0.96555,0,166,86
-0.90911,0,167,86
-1.1086,0,168,86
-0.065971,0,169,86
0.14227,0,170,86
0.72675,0,171,86
1.0341,0,172,86
1.0409,0,173,86
0.569,0,174,86
0.52259,0,175,86
0.76854,0,176,86
-0.41356,0,177,86
-0.074127,0,178,86
-0.18624,0,179,86
-0.41799,0,180,86
-0.66941,0,181,86
-0.32563,0,182,86
0.48474,0,183,86
0.092481,0,184,86
0.93167,0,185,86
0.49017,0,186,86
0.29388,0,187,86
0.0648,0,188,86
-0.36708,0,189,86
-0.36809,0,190,86
-0.23084,0,191,86
0.23978,0,192,86
-0.68803,0,193,86
-0.52879,0,194,86
-0.09552,0,195,86
0.022849,0,196,86
0.32241,0,197,86
0.085713,0,198,86
0.26332,0,199,86
0.20631,0,200,86
-0.015198,0,201,86
-0.023202,0,202,86
0.42753,0,203,86
0.40689,0,204,86
0.30268,0,205,86
0.2096,0,206,86
0.20298,0,207,86
0.17801,0,208,86
-0.22989,0,209,86
-0.28276,0,210,86
-0.21835,0,211,86
-0.25247,0,212,86
-0.22581,0,213,86
-0.30522,0,214,86
-0.34649,0,215,86
-0.5891,0,216,86
-0.18009,0,217,86
-0.69567,0,218,86
-0.97953,0,219,86
-0.68915,0,220,86
-0.67452,0,221,86
-0.34486,0,222,86
0.061904,0,223,86
1.1102,0,224,86
0.93355,0,225,86
0.71458,0,226,86
0.50382,0,227,86
0.44371,0,228,86
0.1871,0,229,86
0.31762,0,230,86
0.83043,0,231,86
-0.15066,0,232,86
0.051066,0,233,86
-0.34412,0,234,86
-0.40926,0,235,86
-0.15533,0,236,86
0.37024,0,237,86
0.99032,0,238,86
0.28108,0,239,86
0.32495,0,240,86
-0.81556,0,241,86
-0.75254,0,242,86
-0.064518,0,243,86
0.055732,0,244,86
0.29734,0,245,86
0.2551,0,246,86
0.70024,0,247,86
-0.51144,0,248,86
-0.5984,0,249,86
-0.33097,0,250,86
-0.32663,0,251,86
-0.42885,0,252,86
-0.24064,0,253,86
0.13312,0,254,86
-0.13491,0,255,86
-0.29516,0,0,86
-0.40529,0,1,86
-0.38066,0,2,86
-0.50896,0,3,86
-0.38468,0,4,86
-0.085562,0,5,86
0.10082,0,6,86
0.092585,0,7,86
0.28672,0,8,86
0.44488,0,9,86
-0.13443,0,10,86
-0.21073,0,11,86
-0.16714,0,12,86
0.070451,0,13,86
0.4733,0,14,86
0.61576,0,15,86
0.65063,0,16,86
0.33581,0,17,86
0.47831,0,18,86
-0.016553,0,19,86
-0.23829,0,20,86
-0.23412,0,21,86
-0.22845,0,22,86
0.034247,0,23,86
0.46473,0,24,86
-0.49394,0,25,86
-0.66062,0,26,86
-0.66107,0,27,86
-0.1358,0,28,86
0.17882,0,29,86
0.64553,0,30,86
1.0367,0,31,86
-0.10238,0,32,86
-0.053594,0,33,86
-0.099554,0,34,86
-0.089375,0,35,86
0.28923,0,36,86
0.69147,0,37,86
-0.21009,0,38,86
0.10174,0,39,86
0.3576,0,40,86
0.60751,0,41,86
0.39835,0,42,86
0.31563,0,43,86
0.12675,0,44,86
0.055186,0,45,86
-0.68695,0,46,86
-0.18922,0,47,86
0.67238,0,48,86
0.65895,0,49,86
0.67145,0,50,86
0.60152,0,51,86
0.68292,0,52,86
-0.069056,0,53,86
-0.34771,0,54,86
-0.57719,0,55,86
-0.6322,0,56,86
-0.95409,0,57,86
-0.87573,0,58,86
-0.66119,0,59,86
-0.55255,0,60,86
-0.39511,0,61,86
-0.11468,0,62,86
0.10245,0,63,86
-0.15643,0,64,86
-0.27486,0,65,86
-0.34154,0,66,86
-0.37444,0,67,86
-0.36147,0,68,86
-0.33649,0,69,86
-0.41557,0,70,86
-0.6161,0,71,86
-0.22731,0,72,86
-0.55868,0,73,86
-0.22727,0,74,86
-0.079819,0,75,86
0.07088,0,76,86
0.11412,0,77,86
-0.13182,0,78,86
0.47073,0,79,86
0.24926,0,80,86
0.66718,0,81,86
0.088241,0,82,86
-0.53906,0,83,86
-0.52362,0,84,86
0.26799,0,85,86
1.6803,0,86,86
1.01,0,87,86
1.3418,0,88,86
0.69008,0,89,86
0.13272,0,90,86
-0.32172,0,91,86
-0.12143,0,92,86
0.56284,0,93,86
-0.21282,0,94,86
0.46053,0,95,86
-0.082939,0,96,86
-0.015652,0,97,86
-0.012242,0,98,86
-0.33874,0,99,86
-0.41368,0,100,86
-0.49226,0,101,86
0.12388,0,102,86
-0.41139,0,103,86
-0.27282,0,104,86
-0.047828,0,105,86
-0.19588,0,106,86
-0.25496,0,107,86
-0.22997,0,108,86
0.16518,0,109,86
-0.32686,0,110,86
-0.46478,0,111,86
-0.33272,0,112,86
0.11121,0,113,86
0.21273,0,114,86
0.3062,0,115,86
0.54135,0,116,86
0.63769,0,117,86
0.3572,0,118,86
0.028692,0,119,86
-0.1115,0,120,86
-0.25052,0,121,86
0.075913,0,122,86
0.13728,0,123,86
0.1811,0,124,86
0.15515,0,125,86
0.31544,0,126,86
0.52192,0,127,86
0.61068,0,128,86
1.0239,0,129,86
0.44378,0,130,86
-0.028328,0,131,86
-0.45391,0,132,86
-0.65998,0,133,86
-0.78238,0,134,86
-1.0889,0,135,86
-0.45882,0,136,86
-0.58916,0,137,86
0.13365,0,138,86
0.66494,0,139,86
1.0766,0,140,86
0.636,0,141,86
-0.054563,0,142,86
0.19501,0,143,86
-0.59004,0,144,86
-0.11215,0,145,86
0.1166,0,146,86
0.33603,0,147,86
-0.040102,0,148,86
-0.21842,0,149,86
-0.20317,0,150,86
-1.2245,0,151,86
-0.67923,0,152,86
-1.0256,0,153,86
-0.779,0,154,86
-0.47125,0,155,86
-0.42279,0,156,86
-0.79068,0,157,86
-0.76629,0,158,86
0.065572,0,159,86
0.12283,0,160,86
0.66389,0,161,86
1.1529,0,162,86
0.88997,0,163,86
0.35372,0,164,86
-0.18681,0,165,86
0.31589,0,166,86
0.12701,0,167,86
0.13479,0,168,86
0.37276,0,169,86
0.45868,0,170,86
0.46768,0,171,86
0.74276,0,172,86
1.0412,0,173,86
0.58309,0,174,86
0.21625,0,175,86
-0.072896,0,176,86
-0.12614,0,177,86
-0.40936,0,178,86
-0.31243,0,179,86
-0.35361,0,180,86
-0.72598,0,181,86
-0.7461,0,182,86
-0.68667,0,183,86
-0.29806,0,184,86
-0.1445,0,185,86
0.41159,0,186,86
0.32816,0,187,86
0.11449,0,188,86
0.032546,0,189,86
-0.17967,0,190,86
-0.13608,0,191,86
0.069765,0,192,86
0.72277,0,193,86
-0.064203,0,194,86
-0.4297,0,195,86
-0.94267,0,196,86
-0.98605,0,197,86
-0.51486,0,198,86
0.1527,0,199,86
1.1963,0,200,86
0.19411,0,201,86
0.18996,0,202,86
-0.04388,0,203,86
0.11988,0,204,86
0.11469,0,205,86
0.61582,0,206,86
1.5352,0,207,86
0.64726,0,208,86
0.82742,0,209,86
0.061234,0,210,86
0.16008,0,211,86
-0.12478,0,212,86
-0.28741,0,213,86
-0.47874,0,214,86
0.16387,0,215,86
-0.49859,0,216,86
-0.23332,0,217,86
-0.056644,0,218,86
-0.062296,0,219,86
-0.77597,0,220,86
-0.75617,0,221,86
-0.54093,0,222,86
-0.45878,0,223,86
-0.13315,0,224,86
-0.32474,0,225,86
-0.64482,0,226,86
-0.75449,0,227,86
-0.21233,0,228,86
-0.09692,0,229,86
0.2401,0,230,86
0.62428,0,231,86
0.7433,0,232,86
-0.30031,0,233,86
-0.56383,0,234,86
-0.38211,0,235,86
0.083793,0,236,86
0.6613,0,237,86
0.90117,0,238,86
0.69765,0,239,86
0.19305,0,240,86
0.34814,0,241,86
-0.072158,0,242,86
-0.3566,0,243,86
-0.26761,0,244,86
0.12182,0,245,86
0.47667,0,246,86
0.48965,0,247,86
0.80138,0,248,86
-0.062259,0,249,86
-0.025146,0,250,86
-0.065091,0,251,86
0.11496,0,252,86
-0.065234,0,253,86
0.11646,0,254,86
0.71342,0,255,86
-0.22019,0,0,86
0.16285,0,1,86
-0.45409,0,2,86
-0.71252,0,3,86
-0.42058,0,4,86
0.24428,0,5,86
-0.38777,0,6,86
0.12178,0,7,86
0.065996,0,8,86
0.33067,0,9,86
-0.51144,0,10,86
-0.63922,0,11,86
-0.45954,0,12,86
0.49816,0,13,86
-0.12238,0,14,86
0.31232,0,15,86
0.56593,0,16,86
-0.78331,0,17,86
-1.0177,0,18,86
-0.18295,0,19,86
-0.13248,0,20,86
0.4708,0,21,86
0.67427,0,22,86
0.20534,0,23,86
-0.75424,0,24,86
-0.39281,0,25,86
0.38848,0,26,86
0.82217,0,27,86
1.0399,0,28,86
0.95338,0,29,86
0.66938,0,30,86
0.083977,0,31,86
-0.17693,0,32,86
-0.39459,0,33,86
-0.62834,0,34,86
-0.48821,0,35,86
-0.42403,0,36,86
-0.26656,0,37,86
-0.18895,0,38,86
0.14083,0,39,86
-0.5401,0,40,86
-0.57729,0,41,86
-0.41137,0,42,86
-0.32216,0,43,86
-0.13047,0,44,86
0.07507,0,45,86
0.82818,0,46,86
0.27261,0,47,86
-0.23433,0,48,86
-0.40395,0,49,86
-0.41178,0,50,86
-0.43478,0,51,86
0.042278,0,52,86
0.93317,0,53,86
-0.098611,0,54,86
0.28738,0,55,86
0.33118,0,56,86
0.60791,0,57,86
0.49623,0,58,86
0.6544,0,59,86
1.2897,0,60,86
0.75081,0,61,86
1.1409,0,62,86
0.08918,0,63,86
-0.19663,0,64,86
-0.24778,0,65,86
-0.53051,0,66,86
-0.84762,0,67,86
-1.1317,0,68,86
-0.20549,0,69,86
-0.56564,0,70,86
-0.31988,0,71,86
0.21334,0,72,86
0.21453,0,73,86
0.13334,0,74,86
0.062495,0,75,86
0.33492,0,76,86
-0.080114,0,77,86
-0.73064,0,78,86
-1.3641,0,79,86
-1.4017,0,80,86
-1.2628,0,81,86
-0.54271,0,82,86
0.1507,0,83,86
0.35655,0,84,86
0.51468,0,85,86
0.58866,0,86,86
0.56186,0,87,86
0.0111,0,88,86
0.036008,0,89,86
0.32412,0,90,86
0.36768,0,91,86
0.046062,0,92,86
-0.32287,0,93,86
-0.03873,0,94,86
0.35837,0,95,86
1.0947,0,96,86
0.32344,0,97,86
-0.22492,0,98,86
-0.10001,0,99,86
0.35937,0,100,86
0.44633,0,101,86
1.0633,0,102,86
0.20254,0,103,86
0.13763,0,104,86
