0.82801,0,1,89
0.43178,0,2,89
-0.2406,0,3,89
-0.77741,0,4,89
-0.88477,0,5,89
-0.74759,0,6,89
-0.41853,0,7,89
-0.12973,0,8,89
0.14176,0,9,89
0.09553,0,10,89
-0.056003,0,11,89
-0.14682,0,12,89
0.098743,0,13,89
0.19159,0,14,89
0.060114,0,15,89
-0.17286,0,16,89
-0.11641,0,17,89
0.10629,0,18,89
0.043168,0,19,89
-0.35159,0,20,89
0.51662,0,21,89
-0.05407,0,22,89
-0.54761,0,23,89
-0.43687,0,24,89
-0.1801,0,25,89
-0.25285,0,26,89
-0.39108,0,27,89
-0.62529,0,28,89
-0.81646,0,29,89
-0.54825,0,30,89
0.52155,0,31,89
0.2354,0,32,89
-0.37232,0,33,89
-0.82492,0,34,89
-1.1253,0,35,89
-1.118,0,36,89
-0.79887,0,37,89
-0.17973,0,38,89
0.4943,0,39,89
0.88166,0,40,89
0.63227,0,41,89
-0.056375,0,42,89
-0.58404,0,43,89
-1.0228,0,44,89
-1.053,0,45,89
-0.61917,0,46,89
0.18075,0,47,89
0.61044,0,48,89
0.65446,0,49,89
0.85574,0,50,89
1.3955,0,51,89
1.3347,0,52,89
1.0613,0,53,89
0.18571,0,54,89
-0.48615,0,55,89
-0.9921,0,56,89
-1.2078,0,57,89
-0.96538,0,58,89
-0.58761,0,59,89
-0.27788,0,60,89
0.18156,0,61,89
0.83615,0,62,89
1.2547,0,63,89
1.5726,0,64,89
1.4284,0,65,89
1.2316,0,66,89
0.94031,0,67,89
0.29734,0,68,89
-0.1788,0,69,89
-0.75056,0,70,89
-1.0744,0,71,89
-1.1017,0,72,89
-0.75435,0,73,89
-0.41607,0,74,89
-0.055843,0,75,89
0.56042,0,76,89
0.93014,0,77,89
0.85708,0,78,89
0.54839,0,79,89
0.17873,0,80,89
0.072453,0,81,89
0.42412,0,82,89
0.70275,0,83,89
0.8059,0,84,89
0.48852,0,85,89
0.31656,0,86,89
0.22558,0,87,89
0.11217,0,88,89
-0.28216,0,89,89
-0.58039,0,90,89
-0.71753,0,91,89
-0.41221,0,92,89
-0.36199,0,93,89
-0.3658,0,94,89
-0.35695,0,95,89
-0.53948,0,96,89
-0.6087,0,97,89
-0.34768,0,98,89
0.17992,0,99,89
0.79121,0,100,89
0.89985,0,101,89
0.50531,0,102,89
-0.22796,0,103,89
-0.50669,0,104,89
-0.6095,0,105,89
-0.57756,0,106,89
-0.229,0,107,89
-0.13899,0,108,89
-0.1832,0,109,89
-0.60147,0,110,89
-0.58328,0,111,89
-0.3113,0,112,89
0.39549,0,113,89
0.6964,0,114,89
0.46678,0,115,89
0.057651,0,116,89
-0.36536,0,117,89
-0.54833,0,118,89
-0.73664,0,119,89
-0.076068,0,120,89
0.31823,0,121,89
-0.045053,0,122,89
-0.65822,0,123,89
-0.89617,0,124,89
-0.53477,0,125,89
0.18598,0,126,89
0.35679,0,127,89
0.3172,0,128,89
0.41916,0,129,89
0.093899,0,130,89
0.17542,0,131,89
1.9109,0,132,89
2.087,0,133,89
0.72852,0,134,89
-0.89688,0,135,89
-1.5997,0,136,89
-1.951,0,137,89
-2.2379,0,138,89
-1.5326,0,139,89
-0.31338,0,140,89
0.023785,0,141,89
0.060045,0,142,89
0.11623,0,143,89
0.23289,0,144,89
0.6698,0,145,89
0.95041,0,146,89
1.3526,0,147,89
1.2396,0,148,89
0.88038,0,149,89
0.52128,0,150,89
0.17479,0,151,89
0.27946,0,152,89
0.1698,0,153,89
0.51282,0,154,89
0.68786,0,155,89
0.51757,0,156,89
0.17577,0,157,89
0.74863,0,158,89
0.53347,0,159,89
-0.14615,0,160,89
-0.59142,0,161,89
-0.86641,0,162,89
-0.77208,0,163,89
-0.62318,0,164,89
-0.50732,0,165,89
-0.14932,0,166,89
-0.24842,0,167,89
-0.47013,0,168,89
-0.292,0,169,89
-0.35833,0,170,89
0.46386,0,171,89
1.4088,0,172,89
1.508,0,173,89
0.64171,0,174,89
-0.32079,0,175,89
-0.67142,0,176,89
-0.87829,0,177,89
-0.8399,0,178,89
-1.0132,0,179,89
-1.182,0,180,89
-0.99358,0,181,89
-0.45617,0,182,89
-0.30927,0,183,89
0.013477,0,184,89
0.64345,0,185,89
0.76666,0,186,89
0.9461,0,187,89
1.2025,0,188,89
1.2013,0,189,89
0.61739,0,190,89
0.50863,0,191,89
0.35422,0,192,89
-0.39132,0,193,89
-0.71332,0,194,89
-0.46909,0,195,89
0.23639,0,196,89
0.27379,0,197,89
0.035046,0,198,89
-0.77259,0,199,89
-1.0509,0,200,89
-1.3346,0,201,89
-0.76416,0,202,89
-0.30352,0,203,89
0.64362,0,204,89
0.84611,0,205,89
0.054565,0,206,89
-0.53339,0,207,89
-0.40834,0,208,89
0.074996,0,209,89
0.13141,0,210,89
0.17831,0,211,89
-0.13517,0,212,89
0.26036,0,213,89
0.86352,0,214,89
0.90871,0,215,89
0.44649,0,216,89
-0.34429,0,217,89
-0.49824,0,218,89
-0.73784,0,219,89
-0.43574,0,220,89
-0.10621,0,221,89
-0.049902,0,222,89
0.3124,0,223,89
0.041968,0,224,89
-0.062899,0,225,89
-0.28557,0,226,89
-0.1028,0,227,89
0.071764,0,228,89
-0.060617,0,229,89
0.37114,0,230,89
0.21655,0,231,89
0.02718,0,232,89
1.7788,0,233,89
1.4557,0,234,89
0.29128,0,235,89
-0.84556,0,236,89
-1.4596,0,237,89
-1.4773,0,238,89
-0.61465,0,239,89
0.47827,0,240,89
0.62102,0,241,89
0.01517,0,242,89
-0.54984,0,243,89
-0.54741,0,244,89
0.29479,0,245,89
0.26319,0,246,89
0.27276,0,247,89
0.43369,0,248,89
0.29036,0,249,89
0.65799,0,250,89
0.60707,0,251,89
0.073148,0,252,89
-0.40319,0,253,89
-0.13224,0,254,89
0.24637,0,255,89
0.75486,0,0,89
0.47072,0,1,89
-0.39918,0,2,89
-0.3771,0,3,89
-0.1855,0,4,89
-0.19532,0,5,89
1.022,0,6,89
0.36913,0,7,89
-0.96666,0,8,89
-1.6376,0,9,89
-1.664,0,10,89
-1.0276,0,11,89
0.83161,0,12,89
1.2589,0,13,89
1.0451,0,14,89
0.24895,0,15,89
-0.23393,0,16,89
0.19449,0,17,89
-0.2294,0,18,89
-0.39284,0,19,89
0.35559,0,20,89
-0.55678,0,21,89
-1.0424,0,22,89
-0.9653,0,23,89
0.12534,0,24,89
1.1519,0,25,89
0.47686,0,26,89
0.031678,0,27,89
0.4855,0,28,89
-0.067157,0,29,89
-0.60397,0,30,89
0.21116,0,31,89
0.29341,0,32,89
-0.40812,0,33,89
-0.81765,0,34,89
-1.058,0,35,89
-0.78194,0,36,89
0.10097,0,37,89
0.35075,0,38,89
0.52006,0,39,89
1.6664,0,40,89
0.96572,0,41,89
0.13012,0,42,89
-0.84009,0,43,89
0.045067,0,44,89
0.58904,0,45,89
-0.05114,0,46,89
1.0031,0,47,89
0.18495,0,48,89
-0.96825,0,49,89
-1.2937,0,50,89
-0.43996,0,51,89
-0.051786,0,52,89
1.0847,0,53,89
2.1122,0,54,89
1.0069,0,55,89
-0.94704,0,56,89
-1.7806,0,57,89
-0.91467,0,58,89
-1.0312,0,59,89
-0.55519,0,60,89
0.76072,0,61,89
0.67452,0,62,89
1.494,0,63,89
1.1293,0,64,89
0.19519,0,65,89
-0.23243,0,66,89
-0.84041,0,67,89
-0.74686,0,68,89
-0.40177,0,69,89
0.22347,0,70,89
0.58149,0,71,89
1.2845,0,72,89
2.0245,0,73,89
0.055179,0,74,89
-1.8091,0,75,89
-2.3671,0,76,89
-1.9258,0,77,89
-0.87468,0,78,89
0.79698,0,79,89
1.1824,0,80,89
0.91138,0,81,89
0.90186,0,82,89
0.12394,0,83,89
-0.35851,0,84,89
-0.11595,0,85,89
0.72709,0,86,89
0.17344,0,87,89
0.010495,0,88,89
-0.37127,0,89,89
-0.06224,0,90,89
-0.65478,0,91,89
-0.54015,0,92,89
-0.60408,0,93,89
0.094683,0,94,89
1.3342,0,95,89
1.4368,0,96,89
0.48773,0,97,89
-1.009,0,98,89
-1.2639,0,99,89
-1.0039,0,100,89
-0.6179,0,101,89
-0.30558,0,102,89
0.61184,0,103,89
0.1636,0,104,89
-0.24872,0,105,89
0.63404,0,106,89
1.1231,0,107,89
0.019164,0,108,89
-0.27383,0,109,89
-0.17979,0,110,89
-0.23536,0,111,89
-0.57732,0,112,89
-0.62824,0,113,89
-0.45936,0,114,89
0.30975,0,115,89
0.14883,0,116,89
0.16388,0,117,89
-0.64007,0,118,89
-0.12181,0,119,89
0.22028,0,120,89
0.90911,0,121,89
0.61313,0,122,89
-0.031679,0,123,89
-0.57695,0,124,89
-0.16968,0,125,89
1.1679,0,126,89
1.678,0,127,89
0.67424,0,128,89
-0.20309,0,129,89
-0.61205,0,130,89
-1.2064,0,131,89
-1.1256,0,132,89
-1.0525,0,133,89
-0.47999,0,134,89
0.18957,0,135,89
0.71668,0,136,89
1.0225,0,137,89
0.80513,0,138,89
0.3096,0,139,89
-0.42219,0,140,89
0.21488,0,141,89
-0.060587,0,142,89
0.39205,0,143,89
0.65662,0,144,89
0.31431,0,145,89
-0.65698,0,146,89
-1.2239,0,147,89
-1.0489,0,148,89
-0.66781,0,149,89
0.33913,0,150,89
1.0998,0,151,89
1.5467,0,152,89
0.12978,0,153,89
-1.5454,0,154,89
-1.2122,0,155,89
-0.39716,0,156,89
0.25823,0,157,89
0.59919,0,158,89
1.005,0,159,89
0.29114,0,160,89
-0.20511,0,161,89
-0.63404,0,162,89
-0.42751,0,163,89
1.2428,0,164,89
0.87834,0,165,89
-0.38452,0,166,89
-0.96936,0,167,89
-0.49632,0,168,89
0.42042,0,169,89
0.77925,0,170,89
0.53045,0,171,89
-1.0483,0,172,89
-1.1106,0,173,89
-0.87093,0,174,89
-0.322,0,175,89
0.26638,0,176,89
1.226,0,177,89
1.1849,0,178,89
0.2744,0,179,89
-0.013357,0,180,89
-0.087013,0,181,89
0.051033,0,182,89
0.26714,0,183,89
-0.41809,0,184,89
-0.87459,0,185,89
-0.5723,0,186,89
-0.13553,0,187,89
0.8083,0,188,89
0.54408,0,189,89
-0.2447,0,190,89
-0.47341,0,191,89
-0.11862,0,192,89
0.2734,0,193,89
0.70803,0,194,89
0.045243,0,195,89
-0.087459,0,196,89
-0.46754,0,197,89
-0.81331,0,198,89
-0.47893,0,199,89
0.36104,0,200,89
0.78594,0,201,89
1.6717,0,202,89
1.0473,0,203,89
-0.58905,0,204,89
-1.4292,0,205,89
-0.84459,0,206,89
0.22227,0,207,89
0.57354,0,208,89
-0.017647,0,209,89
-0.077034,0,210,89
-0.2798,0,211,89
-0.72305,0,212,89
-0.9469,0,213,89
-0.25744,0,214,89
0.12993,0,215,89
0.53915,0,216,89
1.2487,0,217,89
1.1446,0,218,89
0.41637,0,219,89
-0.31875,0,220,89
-0.93281,0,221,89
-0.83669,0,222,89
-0.33605,0,223,89
0.48467,0,224,89
0.1289,0,225,89
-0.1683,0,226,89
0.11745,0,227,89
0.31807,0,228,89
0.67412,0,229,89
1.012,0,230,89
-0.14697,0,231,89
-1.6633,0,232,89
-1.9908,0,233,89
-1.0783,0,234,89
0.46165,0,235,89
0.90565,0,236,89
0.79241,0,237,89
0.40918,0,238,89
0.17622,0,239,89
0.2837,0,240,89
0.24222,0,241,89
0.096585,0,242,89
0.22992,0,243,89
-0.27935,0,244,89
-0.63251,0,245,89
-0.73665,0,246,89
-0.52201,0,247,89
-0.17561,0,248,89
0.81506,0,249,89
0.35146,0,250,89
-0.032162,0,251,89
0.34829,0,252,89
0.35953,0,253,89
1.0612,0,254,89
0.12091,0,255,89
-0.74951,0,0,89
-0.54618,0,1,89
-0.31063,0,2,89
0.52274,0,3,89
0.16038,0,4,89
-0.22821,0,5,89
-0.70166,0,6,89
-0.75271,0,7,89
0.38228,0,8,89
0.72636,0,9,89
0.30574,0,10,89
0.15197,0,11,89
1.1042,0,12,89
0.31037,0,13,89
-0.80381,0,14,89
-1.1173,0,15,89
-0.64122,0,16,89
0.43233,0,17,89
1.0402,0,18,89
0.015644,0,19,89
-0.34156,0,20,89
-0.73022,0,21,89
-0.60652,0,22,89
-0.081636,0,23,89
0.2202,0,24,89
0.81858,0,25,89
0.7692,0,26,89
0.57159,0,27,89
0.18449,0,28,89
-0.24858,0,29,89
-0.11082,0,30,89
0.40883,0,31,89
0.013236,0,32,89
-0.31422,0,33,89
-0.52846,0,34,89
-0.55662,0,35,89
-0.4621,0,36,89
-0.61883,0,37,89
-0.60214,0,38,89
-0.27395,0,39,89
0.22804,0,40,89
1.3337,0,41,89
1.1835,0,42,89
0.27091,0,43,89
-0.60752,0,44,89
-1.2245,0,45,89
-0.79952,0,46,89
0.46372,0,47,89
1.1191,0,48,89
-0.20354,0,49,89
-0.98719,0,50,89
-0.68986,0,51,89
0.047199,0,52,89
0.78276,0,53,89
0.71901,0,54,89
1.2726,0,55,89
0.99798,0,56,89
0.077237,0,57,89
-0.40051,0,58,89
-0.45151,0,59,89
0.17913,0,60,89
-0.23507,0,61,89
-0.79948,0,62,89
-0.68457,0,63,89
-0.34444,0,64,89
0.83026,0,65,89
0.12647,0,66,89
-0.53271,0,67,89
-0.42953,0,68,89
0.3201,0,69,89
0.83009,0,70,89
0.69391,0,71,89
0.3984,0,72,89
-0.40878,0,73,89
-0.054463,0,74,89
-0.89854,0,75,89
-1.0777,0,76,89
-1.1999,0,77,89
-0.71873,0,78,89
0.46674,0,79,89
0.75077,0,80,89
0.71031,0,81,89
-0.013681,0,82,89
-0.10812,0,83,89
0.16576,0,84,89
0.64777,0,85,89
0.46347,0,86,89
0.14241,0,87,89
0.043325,0,88,89
-0.12386,0,89,89
-0.50167,0,90,89
-0.25283,0,91,89
0.098228,0,92,89
0.42134,0,93,89
0.94395,0,94,89
0.22789,0,95,89
-0.53434,0,96,89
-1.3543,0,97,89
-0.87887,0,98,89
0.67254,0,99,89
0.48657,0,100,89
0.19704,0,101,89
0.43572,0,102,89
0.88891,0,103,89
0.19413,0,104,89
-0.87403,0,105,89
-0.85758,0,106,89
0.06269,0,107,89
0.24622,0,108,89
0.14598,0,109,89
0.52609,0,110,89
-0.4565,0,111,89
-0.6979,0,112,89
-0.4215,0,113,89
0.65368,0,114,89
0.39533,0,115,89
-0.38183,0,116,89
-0.050301,0,117,89
0.13066,0,118,89
0.53653,0,119,89
0.10635,0,120,89
-0.25262,0,121,89
-0.1444,0,122,89
-0.60233,0,123,89
-0.59826,0,124,89
-0.2257,0,125,89
-0.017333,0,126,89
0.73141,0,127,89
0.29678,0,128,89
1.1315,0,129,89
0.88792,0,130,89
0.22138,0,131,89
-0.7419,0,132,89
-1.0101,0,133,89
-0.56702,0,134,89
0.20648,0,135,89
-0.064372,0,136,89
-0.13565,0,137,89
0.038607,0,138,89
0.75394,0,139,89
0.047407,0,140,89
-0.68035,0,141,89
-0.34252,0,142,89
-0.31989,0,143,89
0.050609,0,144,89
0.23554,0,145,89
0.078988,0,146,89
1.0691,0,147,89
0.17609,0,148,89
-1.2869,0,149,89
-0.81485,0,150,89
0.04385,0,151,89
0.37582,0,152,89
0.63814,0,153,89
0.25379,0,154,89
0.40514,0,155,89
0.60617,0,156,89
0.0794,0,157,89
-0.72148,0,158,89
-0.31896,0,159,89
0.47171,0,160,89
0.72733,0,161,89
0.72399,0,162,89
0.016212,0,163,89
-1.1204,0,164,89
-0.97418,0,165,89
-0.28895,0,166,89
-0.34701,0,167,89
-0.55589,0,168,89
-0.031193,0,169,89
0.43283,0,170,89
0.39354,0,171,89
-0.020589,0,172,89
0.60261,0,173,89
0.64571,0,174,89
-0.048064,0,175,89
-0.36317,0,176,89
0.3473,0,177,89
-0.034086,0,178,89
-0.23929,0,179,89
-0.34156,0,180,89
-0.42303,0,181,89
-0.18293,0,182,89
0.056524,0,183,89
0.049026,0,184,89
-0.011939,0,185,89
0.1659,0,186,89
0.36389,0,187,89
0.14223,0,188,89
0.39094,0,189,89
0.20107,0,190,89
0.015792,0,191,89
-0.14683,0,192,89
0.19809,0,193,89
0.0619,0,194,89
-0.14859,0,195,89
-0.58264,0,196,89
-0.56402,0,197,89
-0.3368,0,198,89
-0.38926,0,199,89
-0.23055,0,200,89
0.099371,0,201,89
0.61429,0,202,89
0.46639,0,203,89
0.27778,0,204,89
0.2509,0,205,89
0.06306,0,206,89
-0.063256,0,207,89
0.082611,0,208,89
0.15031,0,209,89
-0.06493,0,210,89
-0.20069,0,211,89
-0.25373,0,212,89
-0.10531,0,213,89
-0.1592,0,214,89
-0.022341,0,215,89
0.05675,0,216,89
0.18232,0,217,89
0.08502,0,218,89
0.11163,0,219,89
0.11787,0,220,89
0.019943,0,221,89
-0.34446,0,222,89
-0.41956,0,223,89
-0.036929,0,224,89
0.071239,0,225,89
0.14352,0,226,89
0.17339,0,227,89
0.21447,0,228,89
0.10196,0,229,89
0.07263,0,230,89
-0.080643,0,231,89
-0.12791,0,232,89
-0.044309,0,233,89
0.033194,0,234,89
-0.039574,0,235,89
-0.013399,0,236,89
-0.23637,0,237,89
-0.29802,0,238,89
0.084723,0,239,89
0.077992,0,240,89
0.035854,0,241,89
0.1547,0,242,89
0.16398,0,243,89
0.04947,0,244,89
-0.041423,0,245,89
-0.16442,0,246,89
-0.21105,0,247,89
-0.05332,0,248,89
0.16998,0,249,89
0.089148,0,250,89
0.28441,0,251,89
0.22826,0,252,89
-0.086352,0,253,89
-0.075794,0,254,89
0.034547,0,255,89
-0.13172,0,0,89
-0.14037,0,1,89
-0.010307,0,2,89
0.14339,0,3,89
-0.16917,0,4,89
0.17781,0,5,89
0.078977,0,6,89
-0.15133,0,7,89
-0.11343,0,8,89
0.10256,0,9,89
0.23073,0,10,89
0.14753,0,11,89
0.18617,0,12,89
0.097506,0,13,89
-0.16337,0,14,89
-0.25161,0,15,89
-0.28544,0,16,89
0.07161,0,17,89
0.14613,0,18,89
-0.10975,0,19,89
-0.37335,0,20,89
-0.064759,0,21,89
-0.11616,0,22,89
-0.19021,0,23,89
0.19155,0,24,89
0.09439,0,25,89
0.19543,0,26,89
0.22814,0,27,89
0.24228,0,28,89
-0.12346,0,29,89
-0.14158,0,30,89
-0.049712,0,31,89
-0.13183,0,32,89
-0.064054,0,33,89
-0.1743,0,34,89
-0.20755,0,35,89
0.099711,0,36,89
0.53819,0,37,89
0.24006,0,38,89
-0.2211,0,39,89
-0.11855,0,40,89
-0.014773,0,41,89
0.14533,0,42,89
0.28875,0,43,89
0.32048,0,44,89
0.19744,0,45,89
0.01423,0,46,89
-0.16602,0,47,89
-0.23436,0,48,89
-0.14658,0,49,89
-0.14979,0,50,89
-0.1261,0,51,89
-0.093,0,52,89
-0.13505,0,53,89
-0.057223,0,54,89
-0.031395,0,55,89
0.059908,0,56,89
0.12464,0,57,89
0.042876,0,58,89
-0.094352,0,59,89
-0.082157,0,60,89
-0.033565,0,61,89
0.16567,0,62,89
0.057942,0,63,89
-0.040893,0,64,89
-0.15607,0,65,89
0.096941,0,66,89
0.082461,0,67,89
-0.1963,0,68,89
0.18386,0,69,89
0.070224,0,70,89
-0.015076,0,71,89
-0.14357,0,72,89
-0.012855,0,73,89
-0.27616,0,74,89
-0.073607,0,75,89
0.17436,0,76,89
0.15549,0,77,89
0.069866,0,78,89
-0.021169,0,79,89
0.04933,0,80,89
-0.072963,0,81,89
-0.073054,0,82,89
-0.037883,0,83,89
0.069157,0,84,89
0.01408,0,85,89
0.062138,0,86,89
0.53335,0,87,89
0.2169,0,88,89
-0.18493,0,89,89
-0.37807,0,90,89
-0.077881,0,91,89
-0.039167,0,92,89
-0.42526,0,93,89
-0.58538,0,94,89
-0.20052,0,95,89
0.051969,0,96,89
0.15049,0,97,89
0.84509,0,98,89
0.94647,0,99,89
0.124,0,100,89
-0.27379,0,101,89
-0.26066,0,102,89
-0.14911,0,103,89
-0.18985,0,104,89
-0.16855,0,105,89
0.13648,0,106,89
0.62766,0,107,89
0.2983,0,108,89
-0.34195,0,109,89
-0.44682,0,110,89
-0.044746,0,111,89
0.046083,0,112,89
-0.34346,0,113,89
-0.25843,0,114,89
0.11971,0,115,89
0.24081,0,116,89
0.10859,0,117,89
-0.055244,0,118,89
0.11977,0,119,89
0.021567,0,120,89
-0.078122,0,121,89
0.23171,0,122,89
0.067143,0,123,89
0.16104,0,124,89
0.29708,0,125,89
0.083848,0,126,89
0.40061,0,127,89
-0.16268,0,128,89
-0.64937,0,129,89
-0.83568,0,130,89
-0.61177,0,131,89
-0.10099,0,132,89
0.060507,0,133,89
-0.043,0,134,89
0.42991,0,135,89
0.36325,0,136,89
0.19583,0,137,89
-0.16805,0,138,89
0.14525,0,139,89
0.37455,0,140,89
-0.13241,0,141,89
-0.46623,0,142,89
-0.42901,0,143,89
-0.38081,0,144,89
-0.089012,0,145,89
0.28254,0,146,89
0.64216,0,147,89
0.38134,0,148,89
-0.14704,0,149,89
0.48709,0,150,89
0.45328,0,151,89
0.12058,0,152,89
-0.40309,0,153,89
-0.60601,0,154,89
-0.3176,0,155,89
0.085966,0,156,89
0.17834,0,157,89
0.020906,0,158,89
-0.10184,0,159,89
-0.072731,0,160,89
0.17224,0,161,89
0.20131,0,162,89
-0.031227,0,163,89
-0.098255,0,164,89
0.057992,0,165,89
0.072543,0,166,89
0.25577,0,167,89
0.20135,0,168,89
-0.01672,0,169,89
-0.029216,0,170,89
-0.071484,0,171,89
-0.28719,0,172,89
0.29479,0,173,89
-0.031258,0,174,89
-0.25878,0,175,89
-0.062647,0,176,89
1.1779,0,177,89
0.89228,0,178,89
-0.32712,0,179,89
-1.0735,0,180,89
-1.3406,0,181,89
-0.71012,0,182,89
0.010844,0,183,89
0.20992,0,184,89
0.24183,0,185,89
0.40598,0,186,89
0.47787,0,187,89
0.38307,0,188,89
0.11974,0,189,89
-0.21641,0,190,89
-0.38753,0,191,89
-0.18847,0,192,89
-0.13025,0,193,89
0.14717,0,194,89
0.040398,0,195,89
0.1703,0,196,89
0.57933,0,197,89
1.1431,0,198,89
0.5115,0,199,89
-0.32331,0,200,89
-0.58023,0,201,89
-1.023,0,202,89
-0.67658,0,203,89
-0.31348,0,204,89
-0.51582,0,205,89
-0.57913,0,206,89
-0.50496,0,207,89
0.35271,0,208,89
0.6016,0,209,89
0.81299,0,210,89
0.66166,0,211,89
0.37995,0,212,89
0.13956,0,213,89
-0.28705,0,214,89
-0.67006,0,215,89
-0.70853,0,216,89
-0.48477,0,217,89
-0.18124,0,218,89
0.13058,0,219,89
0.24695,0,220,89
0.38998,0,221,89
0.51199,0,222,89
0.85092,0,223,89
0.7124,0,224,89
0.28548,0,225,89
0.31158,0,226,89
-0.20386,0,227,89
-0.63881,0,228,89
-0.57972,0,229,89
-0.34865,0,230,89
-0.33282,0,231,89
-0.2418,0,232,89
-0.052249,0,233,89
-0.039563,0,234,89
0.48643,0,235,89
0.89582,0,236,89
0.5935,0,237,89
0.38233,0,238,89
-0.15374,0,239,89
-0.65135,0,240,89
-0.84473,0,241,89
-0.73512,0,242,89
-0.1373,0,243,89
0.48853,0,244,89
0.40518,0,245,89
0.18144,0,246,89
0.042705,0,247,89
-0.019854,0,248,89
0.41371,0,249,89
0.76427,0,250,89
0.5797,0,251,89
0.087006,0,252,89
-0.75854,0,253,89
-1.2957,0,254,89
-1.349,0,255,89
-0.84833,0,0,89
-0.10152,0,1,89
0.12732,0,2,89
0.20438,0,3,89
0.17253,0,4,89
0.85778,0,5,89
1.4238,0,6,89
0.98698,0,7,89
0.34506,0,8,89
-0.41055,0,9,89
-1.0166,0,10,89
-1.2791,0,11,89
-1.0166,0,12,89
-0.040275,0,13,89
0.37252,0,14,89
0.2557,0,15,89
0.26323,0,16,89
0.26477,0,17,89
0.89724,0,18,89
1.1467,0,19,89
0.70484,0,20,89
0.085724,0,21,89
-0.70938,0,22,89
-1.385,0,23,89
-1.5245,0,24,89
-0.8462,0,25,89
0.14051,0,26,89
0.65092,0,27,89
0.59558,0,28,89
0.52703,0,29,89
0.26184,0,30,89
0.36699,0,31,89
0.43417,0,32,89
0.22126,0,33,89
-0.03337,0,34,89
-0.4439,0,35,89
-0.74772,0,36,89
-0.76653,0,37,89
-0.50983,0,38,89
-0.066322,0,39,89
0.44124,0,40,89
0.85238,0,41,89
1.0281,0,42,89
1.4823,0,43,89
1.7259,0,44,89
1.1275,0,45,89
-0.067664,0,46,89
-1.152,0,47,89
-1.9018,0,48,89
-1.7563,0,49,89
-0.83919,0,50,89
0.025633,0,51,89
0.5798,0,52,89
0.28114,0,53,89
-0.28962,0,54,89
-0.74093,0,55,89
-0.54269,0,56,89
0.11797,0,57,89
0.52302,0,58,89
0.51822,0,59,89
-0.065754,0,60,89
-0.67821,0,61,89
-0.96882,0,62,89
-0.68471,0,63,89
0.13568,0,64,89
0.77825,0,65,89
1.1015,0,66,89
1.0557,0,67,89
0.59026,0,68,89
0.054045,0,69,89
-0.18952,0,70,89
0.23651,0,71,89
0.66433,0,72,89
0.36766,0,73,89
-0.22307,0,74,89
-0.81783,0,75,89
-0.7245,0,76,89
-0.31808,0,77,89
-0.081163,0,78,89
0.015925,0,79,89
-0.1193,0,80,89
-0.45246,0,81,89
-0.63972,0,82,89
-0.36906,0,83,89
-0.22107,0,84,89
-0.21467,0,85,89
-0.14244,0,86,89
-0.026971,0,87,89
0.11307,0,88,89
0.38897,0,89,89
1.1085,0,90,89
1.4881,0,91,89
1.5875,0,92,89
1.0742,0,93,89
0.081599,0,94,89
-1.0138,0,95,89
-1.413,0,96,89
-1.1499,0,97,89
-0.45505,0,98,89
0.33323,0,99,89
0.49257,0,100,89
0.023638,0,101,89
-0.33588,0,102,89
-0.69426,0,103,89
-0.73933,0,104,89
-0.35042,0,105,89
0.16336,0,106,89
0.57289,0,107,89
0.73691,0,108,89
0.73481,0,109,89
0.32649,0,110,89
-0.069128,0,111,89
-0.18941,0,112,89
-0.18208,0,113,89
-0.058031,0,114,89
0.19332,0,115,89
0.13483,0,116,89
-0.17644,0,117,89
-0.078857,0,118,89
0.21345,0,119,89
0.98645,0,120,89
0.46114,0,121,89
-0.054324,0,122,89
-0.27649,0,123,89
-0.20656,0,124,89
-0.22881,0,125,89
-0.27576,0,126,89
-0.47782,0,127,89
-3.4795,0,128,89
-2.3987,0,129,89
-1.6098,0,130,89
-1.0234,0,131,89
-0.32994,0,132,89
0.19505,0,133,89
0.67586,0,134,89
1.1503,0,135,89
1.447,0,136,89
1.6849,0,137,89
1.7704,0,138,89
1.9053,0,139,89
1.9284,0,140,89
1.9028,0,141,89
1.8075,0,142,89
1.6231,0,143,89
1.673,0,144,89
1.532,0,145,89
1.6048,0,146,89
1.3544,0,147,89
0.92465,0,148,89
0.45892,0,149,89
-0.043791,0,150,89
-0.24147,0,151,89
-0.076483,0,152,89
0.20464,0,153,89
0.4365,0,154,89
0.59005,0,155,89
0.65625,0,156,89
0.59324,0,157,89
0.48862,0,158,89
0.13227,0,159,89
-0.30567,0,160,89
-0.63184,0,161,89
-0.839,0,162,89
-0.66005,0,163,89
-0.4028,0,164,89
-0.3942,0,165,89
-0.61666,0,166,89
-0.87955,0,167,89
-1.1276,0,168,89
-1.2303,0,169,89
-1.1611,0,170,89
-1.0631,0,171,89
-0.91598,0,172,89
-0.85883,0,173,89
-0.78892,0,174,89
-0.80224,0,175,89
0.079999,0,176,89
0.1283,0,177,89
0.24397,0,178,89
0.097882,0,179,89
-0.20702,0,180,89
-0.63112,0,181,89
-1.1579,0,182,89
-1.5274,0,183,89
-1.6662,0,184,89
-1.5031,0,185,89
-1.1611,0,186,89
-0.88973,0,187,89
-0.91485,0,188,89
-0.86537,0,189,89
-0.67107,0,190,89
-0.72367,0,191,89
-0.77925,0,192,89
-0.80327,0,193,89
-0.55538,0,194,89
-0.55196,0,195,89
-0.5425,0,196,89
-0.42003,0,197,89
-0.31081,0,198,89
0.084647,0,199,89
0.14043,0,200,89
0.018526,0,201,89
-0.21786,0,202,89
-0.48426,0,203,89
-0.35256,0,204,89
-0.16103,0,205,89
0.52534,0,206,89
1.2194,0,207,89
1.5826,0,208,89
1.1782,0,209,89
0.72197,0,210,89
0.60826,0,211,89
0.48827,0,212,89
0.26591,0,213,89
0.12812,0,214,89
0.33789,0,215,89
0.83628,0,216,89
1.8689,0,217,89
2.5913,0,218,89
2.5626,0,219,89
1.8894,0,220,89
1.3281,0,221,89
0.59214,0,222,89
0.066777,0,223,89
-0.11147,0,224,89
0.012919,0,225,89
0.31793,0,226,89
0.72892,0,227,89
0.85272,0,228,89
1.07,0,229,89
0.83184,0,230,89
0.73421,0,231,89
0.39347,0,232,89
0.30575,0,233,89
0.42134,0,234,89
0.31203,0,235,89
0.65831,0,236,89
0.82177,0,237,89
1.2793,0,238,89
0.97488,0,239,89
0.011624,0,240,89
-1.1259,0,241,89
-1.482,0,242,89
-1.2588,0,243,89
-0.98536,0,244,89
-0.39903,0,245,89
0.55982,0,246,89
1.1755,0,247,89
1.2487,0,248,89
0.79886,0,249,89
0.30566,0,250,89
0.34609,0,251,89
-0.34146,0,252,89
-1.0109,0,253,89
-1.8052,0,254,89
-2.1475,0,255,89
-2.3095,0,0,89
-1.4558,0,1,89
0.69704,0,2,89
0.777,0,3,89
0.16207,0,4,89
-0.27578,0,5,89
-0.40897,0,6,89
-0.52578,0,7,89
-0.55089,0,8,89
-0.53974,0,9,89
-0.10051,0,10,89
0.77588,0,11,89
0.46249,0,12,89
0.04667,0,13,89
-0.42218,0,14,89
-0.74849,0,15,89
-1.1595,0,16,89
-0.89322,0,17,89
-0.58964,0,18,89
-0.30348,0,19,89
-0.93847,0,20,89
-1.7727,0,21,89
-1.773,0,22,89
-0.98283,0,23,89
-0.35086,0,24,89
-0.025244,0,25,89
1.0528,0,26,89
1.5504,0,27,89
1.3415,0,28,89
0.44163,0,29,89
-0.40049,0,30,89
-0.99757,0,31,89
-0.15309,0,32,89
1.2393,0,33,89
1.9609,0,34,89
1.4405,0,35,89
-0.5658,0,36,89
-2.6601,0,37,89
-3.8749,0,38,89
-2.3883,0,39,89
-0.201,0,40,89
1.4274,0,41,89
2.1458,0,42,89
2.0196,0,43,89
2.3882,0,44,89
2.0855,0,45,89
1.8434,0,46,89
1.2534,0,47,89
0.048588,0,48,89
-1.1495,0,49,89
-1.6793,0,50,89
-1.1909,0,51,89
-0.26451,0,52,89
0.25401,0,53,89
0.19502,0,54,89
0.13671,0,55,89
0.047935,0,56,89
0.65038,0,57,89
1.3106,0,58,89
1.9141,0,59,89
1.3563,0,60,89
0.16851,0,61,89
-0.98886,0,62,89
-1.4952,0,63,89
-1.3091,0,64,89
-0.7527,0,65,89
-0.095579,0,66,89
0.42936,0,67,89
0.78794,0,68,89
0.30938,0,69,89
-0.1729,0,70,89
-0.068691,0,71,89
0.92793,0,72,89
1.6147,0,73,89
1.8672,0,74,89
1.4507,0,75,89
0.19193,0,76,89
-1.0575,0,77,89
-1.9066,0,78,89
-1.8581,0,79,89
-1.2624,0,80,89
0.45095,0,81,89
1.1472,0,82,89
0.85559,0,83,89
-0.1627,0,84,89
0.05686,0,85,89
0.36555,0,86,89
-2.5445,0,87,89
-2.1389,0,88,89
-1.4556,0,89,89
-0.44614,0,90,89
-0.11032,0,91,89
-0.063481,0,92,89
1.224,0,93,89
1.282,0,94,89
0.22413,0,95,89
-0.85339,0,96,89
-0.64408,0,97,89
-0.099932,0,98,89
0.40388,0,99,89
1.6435,0,100,89
2.4003,0,101,89
2.5467,0,102,89
2.0016,0,103,89
1.0476,0,104,89
1.3657,0,105,89
1.1846,0,106,89
0.60153,0,107,89
0.56193,0,108,89
0.032602,0,109,89
-0.36795,0,110,89
0.45547,0,111,89
2.2488,0,112,89
2.9269,0,113,89
2.3017,0,114,89
0.50365,0,115,89
-1.2565,0,116,89
-1.5435,0,117,89
-0.71372,0,118,89
-0.59891,0,119,89
-0.66601,0,120,89
-1.0328,0,121,89
-1.7072,0,122,89
-2.4868,0,123,89
-2.1851,0,124,89
-1.6269,0,125,89
-1.4992,0,126,89
-1.0093,0,127,89
-0.45906,0,128,89
-0.72681,0,129,89
-0.97514,0,130,89
-0.30509,0,131,89
-0.2415,0,132,89
-0.79796,0,133,89
-0.94186,0,134,89
-0.89025,0,135,89
-1.6967,0,136,89
-1.9876,0,137,89
-1.1477,0,138,89
-0.29667,0,139,89
-0.69118,0,140,89
-0.54978,0,141,89
-0.63163,0,142,89
-0.65818,0,143,89
-1.2,0,144,89
-1.1877,0,145,89
-0.41569,0,146,89
0.42669,0,147,89
0.60388,0,148,89
0.014031,0,149,89
-0.49176,0,150,89
0.12119,0,151,89
1.3159,0,152,89
1.9547,0,153,89
1.0525,0,154,89
-0.4303,0,155,89
-0.95746,0,156,89
-0.69306,0,157,89
-0.1521,0,158,89
0.41452,0,159,89
1.4891,0,160,89
1.6783,0,161,89
1.8455,0,162,89
1.0524,0,163,89
1.0231,0,164,89
1.8924,0,165,89
1.513,0,166,89
0.037165,0,167,89
-1.1109,0,168,89
-1.2631,0,169,89
-0.19474,0,170,89
1.2792,0,171,89
3.1625,0,172,89
2.4162,0,173,89
1.1237,0,174,89
-0.070934,0,175,89
-1.0383,0,176,89
-0.88786,0,177,89
-0.58938,0,178,89
-0.11776,0,179,89
1.1932,0,180,89
1.6716,0,181,89
2.4765,0,182,89
1.8721,0,183,89
0.39326,0,184,89
0.63761,0,185,89
0.055307,0,186,89
-1.0328,0,187,89
-1.1753,0,188,89
-1.2654,0,189,89
-0.18224,0,190,89
0.4488,0,191,89
-0.20802,0,192,89
0.69474,0,193,89
1.1402,0,194,89
1.017,0,195,89
0.52641,0,196,89
-0.42946,0,197,89
-1.1872,0,198,89
-1.6328,0,199,89
-1.7033,0,200,89
0.28763,0,201,89
0.5043,0,202,89
-0.088854,0,203,89
-0.65119,0,204,89
-1.3798,0,205,89
-0.85804,0,206,89
0.076157,0,207,89
0.54065,0,208,89
0.56796,0,209,89
0.25493,0,210,89
-0.7378,0,211,89
-0.71499,0,212,89
-0.20246,0,213,89
-0.42577,0,214,89
-0.28192,0,215,89
0.69372,0,216,89
0.5686,0,217,89
-0.29796,0,218,89
-1.5485,0,219,89
-2.1534,0,220,89
-2.0182,0,221,89
-0.58026,0,222,89
1.0338,0,223,89
2.2992,0,224,89
1.3986,0,225,89
-0.62469,0,226,89
-1.1841,0,227,89
-1.2422,0,228,89
-1.9446,0,229,89
-1.2227,0,230,89
-0.28773,0,231,89
-0.096322,0,232,89
-0.072243,0,233,89
-0.148,0,234,89
-0.32909,0,235,89
-0.6687,0,236,89
-0.09768,0,237,89
1.2796,0,238,89
1.1754,0,239,89
0.35247,0,240,89
0.19007,0,241,89
0.20382,0,242,89
-0.21344,0,243,89
-0.58909,0,244,89
-0.50987,0,245,89
-0.21332,0,246,89
-0.095195,0,247,89
-0.035781,0,248,89
0.95371,0,249,89
1.0102,0,250,89
0.67473,0,251,89
0.44127,0,252,89
-0.53846,0,253,89
-0.7427,0,254,89
-0.51483,0,255,89
-0.86391,0,0,89
-0.54721,0,1,89
0.10364,0,2,89
1.6485,0,3,89
1.7126,0,4,89
1.2739,0,5,89
1.9379,0,6,89
0.12824,0,7,89
-1.4976,0,8,89
-2.0582,0,9,89
-1.872,0,10,89
-0.86563,0,11,89
0.63971,0,12,89
1.5738,0,13,89
2.125,0,14,89
1.4413,0,15,89
0.40863,0,16,89
-0.18059,0,17,89
-0.44162,0,18,89
-0.18728,0,19,89
-0.22254,0,20,89
-0.471,0,21,89
0.44733,0,22,89
1.7162,0,23,89
0.8026,0,24,89
0.14666,0,25,89
-0.52022,0,26,89
-0.92553,0,27,89
0.2314,0,28,89
0.69258,0,29,89
-0.15046,0,30,89
-0.47252,0,31,89
-1.375,0,32,89
-2.1019,0,33,89
-1.8589,0,34,89
-1.106,0,35,89
-0.10607,0,36,89
-0.39044,0,37,89
-0.71008,0,38,89
-0.98195,0,39,89
0.60455,0,40,89
1.5875,0,41,89
1.9175,0,42,89
1.341,0,43,89
0.48648,0,44,89
0.57035,0,45,89
2.026,0,46,89
2.2246,0,47,89
1.4345,0,48,89
1.1242,0,49,89
1.1954,0,50,89
1.1649,0,51,89
1.987,0,52,89
1.314,0,53,89
-0.29746,0,54,89
-1.4438,0,55,89
-1.0695,0,56,89
-0.77187,0,57,89
-0.11265,0,58,89
-0.1127,0,59,89
-0.46918,0,60,89
-0.56444,0,61,89
-0.2762,0,62,89
0.6878,0,63,89
0.27768,0,64,89
-0.53554,0,65,89
-1.8428,0,66,89
-2.3252,0,67,89
-2.1865,0,68,89
-1.8486,0,69,89
-0.83481,0,70,89
0.065201,0,71,89
0.95565,0,72,89
-0.26182,0,73,89
-1.5714,0,74,89
-1.9442,0,75,89
-1.1571,0,76,89
-0.25656,0,77,89
0.18254,0,78,89
-0.044432,0,79,89
-0.28443,0,80,89
0.54569,0,81,89
0.30582,0,82,89
-0.51998,0,83,89
-1.4826,0,84,89
-1.6077,0,85,89
-0.97702,0,86,89
-0.0691,0,87,89
1.3912,0,88,89
0.75693,0,89,89
-0.41227,0,90,89
-0.77183,0,91,89
-0.46626,0,92,89
0.16553,0,93,89
0.57494,0,94,89
0.75271,0,95,89
0.6003,0,96,89
-0.014117,0,97,89
-0.51043,0,98,89
-0.66285,0,99,89
0.2504,0,100,89
0.81117,0,101,89
1.3029,0,102,89
1.7677,0,103,89
1.473,0,104,89
0.61903,0,105,89
-0.86801,0,106,89
-1.0016,0,107,89
1.4455,0,108,89
1.751,0,109,89
1.1511,0,110,89
0.78067,0,111,89
0.61785,0,112,89
-0.11657,0,113,89
-0.5974,0,114,89
-0.19441,0,115,89
0.40757,0,116,89
1.1244,0,117,89
0.72469,0,118,89
-0.093348,0,119,89
-0.72909,0,120,89
-0.45036,0,121,89
0.13692,0,122,89
0.68276,0,123,89
0.78476,0,124,89
0.85305,0,125,89
-0.89523,0,126,89
-0.6982,0,127,89
-0.036438,0,128,89
-0.41061,0,129,89
-1.0586,0,130,89
-0.60243,0,131,89
0.027841,0,132,89
0.95288,0,133,89
1.4009,0,134,89
0.95537,0,135,89
0.63505,0,136,89
0.91563,0,137,89
0.96465,0,138,89
0.53957,0,139,89
-0.069173,0,140,89
-0.36525,0,141,89
-0.29624,0,142,89
-0.38321,0,143,89
0.4407,0,144,89
0.91848,0,145,89
-0.34118,0,146,89
-1.7057,0,147,89
-2.0263,0,148,89
-0.91629,0,149,89
0.16106,0,150,89
0.92608,0,151,89
0.91193,0,152,89
0.25996,0,153,89
-0.73743,0,154,89
-1.0546,0,155,89
-0.88502,0,156,89
-0.35465,0,157,89
-0.042459,0,158,89
1.236,0,159,89
0.37104,0,160,89
-1.4446,0,161,89
-2.3345,0,162,89
-1.6177,0,163,89
-0.22596,0,164,89
0.54738,0,165,89
-0.1751,0,166,89
-0.57457,0,167,89
-0.64641,0,168,89
-0.16182,0,169,89
-0.28762,0,170,89
-0.59142,0,171,89
0.47206,0,172,89
0.9478,0,173,89
-0.32162,0,174,89
-1.9379,0,175,89
-1.8412,0,176,89
-0.68675,0,177,89
0.31507,0,178,89
0.43373,0,179,89
0.45357,0,180,89
0.389,0,181,89
0.78828,0,182,89
0.48747,0,183,89
1.2232,0,184,89
0.29162,0,185,89
-1.3297,0,186,89
-1.6968,0,187,89
-0.57717,0,188,89
0.39831,0,189,89
1.0563,0,190,89
1.0813,0,191,89
0.73691,0,192,89
-0.10417,0,193,89
-0.60852,0,194,89
-0.09049,0,195,89
0.58997,0,196,89
0.64484,0,197,89
0.62184,0,198,89
0.80198,0,199,89
1.937,0,200,89
0.54766,0,201,89
-1.2887,0,202,89
-1.5006,0,203,89
-0.46111,0,204,89
0.27659,0,205,89
0.71339,0,206,89
1.3804,0,207,89
0.65061,0,208,89
0.42232,0,209,89
-0.78948,0,210,89
-1.0135,0,211,89
-0.013599,0,212,89
0.6784,0,213,89
1.0659,0,214,89
0.90168,0,215,89
0.55367,0,216,89
0.40226,0,217,89
0.14814,0,218,89
0.093631,0,219,89
-0.48659,0,220,89
-0.10171,0,221,89
0.70751,0,222,89
0.023482,0,223,89
-0.64385,0,224,89
-0.079749,0,225,89
0.27232,0,226,89
0.7623,0,227,89
-0.51598,0,228,89
-1.0283,0,229,89
-0.48782,0,230,89
0.45006,0,231,89
1.0711,0,232,89
0.042605,0,233,89
-0.23491,0,234,89
0.093667,0,235,89
0.21083,0,236,89
0.16316,0,237,89
-0.17034,0,238,89
0.1181,0,239,89
0.23707,0,240,89
0.44394,0,241,89
-0.60498,0,242,89
-1.0697,0,243,89
-0.56604,0,244,89
0.4484,0,245,89
-0.26269,0,246,89
-0.81808,0,247,89
-1.0153,0,248,89
-0.77451,0,249,89
0.041349,0,250,89
0.54343,0,251,89
0.73191,0,252,89
0.17015,0,253,89
-0.519,0,254,89
-0.10369,0,255,89
-0.57457,0,0,89
-0.1261,0,1,89
-0.26223,0,2,89
-0.22039,0,3,89
-0.39915,0,4,89
-0.74689,0,5,89
-0.36623,0,6,89
2.25,0,7,89
0.97373,0,8,89
-1.1037,0,9,89
-1.6665,0,10,89
-0.83446,0,11,89
0.88329,0,12,89
0.73876,0,13,89
1.2297,0,14,89
-0.167,0,15,89
-1.1697,0,16,89
-1.113,0,17,89
-0.33109,0,18,89
0.032169,0,19,89
0.24807,0,20,89
0.22271,0,21,89
0.065037,0,22,89
-0.31949,0,23,89
0.12631,0,24,89
0.53146,0,25,89
0.62194,0,26,89
-0.029434,0,27,89
-0.050504,0,28,89
0.028553,0,29,89
-0.049886,0,30,89
-0.1378,0,31,89
0.33316,0,32,89
0.904,0,33,89
0.53064,0,34,89
-0.45617,0,35,89
-0.77596,0,36,89
0.2935,0,37,89
0.86338,0,38,89
-0.39841,0,39,89
-1.1949,0,40,89
-0.64074,0,41,89
0.72104,0,42,89
0.82846,0,43,89
0.10016,0,44,89
-0.35631,0,45,89
-0.32115,0,46,89
0.39639,0,47,89
0.80695,0,48,89
1.8572,0,49,89
0.010755,0,50,89
-1.713,0,51,89
-1.3931,0,52,89
-0.29743,0,53,89
0.23971,0,54,89
0.29877,0,55,89
0.27581,0,56,89
0.32083,0,57,89
0.37962,0,58,89
0.1587,0,59,89
-0.015374,0,60,89
0.35705,0,61,89
0.32875,0,62,89
0.057308,0,63,89
-0.098059,0,64,89
-0.031775,0,65,89
0.30352,0,66,89
0.26025,0,67,89
0.23704,0,68,89
-0.31161,0,69,89
-0.34861,0,70,89
-0.061074,0,71,89
0.029299,0,72,89
0.27425,0,73,89
0.086196,0,74,89
0.15699,0,75,89
-0.19471,0,76,89
-0.31515,0,77,89
-0.30562,0,78,89
-0.14153,0,79,89
0.049031,0,80,89
0.30577,0,81,89
0.40274,0,82,89
0.11626,0,83,89
-0.3392,0,84,89
-0.28454,0,85,89
-0.54408,0,86,89
-0.65401,0,87,89
-0.033807,0,88,89
0.38807,0,89,89
0.194,0,90,89
-0.13416,0,91,89
-0.19429,0,92,89
0.1164,0,93,89
-0.11704,0,94,89
0.034128,0,95,89
0.2672,0,96,89
0.21929,0,97,89
-0.49876,0,98,89
-0.46259,0,99,89
-0.15483,0,100,89
-0.042822,0,101,89
-0.042352,0,102,89
0.012037,0,103,89
0.49607,0,104,89
0.31545,0,105,89
-0.42718,0,106,89
-0.79126,0,107,89
-0.31604,0,108,89
0.13038,0,109,89
0.24372,0,110,89
0.26176,0,111,89
0.30306,0,112,89
0.23312,0,113,89
0.069176,0,114,89
-0.075079,0,115,89
-0.054519,0,116,89
0.044159,0,117,89
0.10445,0,118,89
0.15603,0,119,89
0.17188,0,120,89
0.31605,0,121,89
0.11907,0,122,89
-0.14462,0,123,89
-0.31535,0,124,89
-0.21932,0,125,89
-0.052397,0,126,89
-0.10645,0,127,89
0.12667,0,128,89
0.13709,0,129,89
0.51666,0,130,89
0.23225,0,131,89
-0.31067,0,132,89
-0.4842,0,133,89
-0.17288,0,134,89
0.074049,0,135,89
-0.062275,0,136,89
-0.054936,0,137,89
-0.034601,0,138,89
-0.10086,0,139,89
-0.02701,0,140,89
0.10519,0,141,89
0.080821,0,142,89
0.12425,0,143,89
0.12026,0,144,89
0.21572,0,145,89
0.15702,0,146,89
-0.019584,0,147,89
0.014146,0,148,89
0.05222,0,149,89
0.092668,0,150,89
-0.024836,0,151,89
0.013949,0,152,89
0.19461,0,153,89
-0.014289,0,154,89
-0.31403,0,155,89
-0.17684,0,156,89
0.033172,0,157,89
0.16439,0,158,89
0.010061,0,159,89
-0.16892,0,160,89
-0.15486,0,161,89
-0.13541,0,162,89
-0.079959,0,163,89
0.060294,0,164,89
0.042479,0,165,89
0.10841,0,166,89
-0.03688,0,167,89
0.076543,0,168,89
0.06386,0,169,89
-0.097909,0,170,89
-0.079032,0,171,89
-0.049002,0,172,89
0.25396,0,173,89
0.22346,0,174,89
-0.17819,0,175,89
-0.20368,0,176,89
-0.22068,0,177,89
-0.33663,0,178,89
0.10419,0,179,89
0.2495,0,180,89
0.23026,0,181,89
0.089728,0,182,89
0.11187,0,183,89
0.34596,0,184,89
0.050848,0,185,89
-0.10966,0,186,89
-0.089,0,187,89
-0.020116,0,188,89
0.016685,0,189,89
0.16872,0,190,89
0.070228,0,191,89
0.055087,0,192,89
0.12769,0,193,89
-0.051564,0,194,89
-0.23257,0,195,89
-0.31846,0,196,89
-0.042763,0,197,89
-0.010202,0,198,89
-0.095824,0,199,89
-0.14286,0,200,89
-0.15674,0,201,89
0.057294,0,202,89
0.19717,0,203,89
0.2434,0,204,89
0.042546,0,205,89
-0.15545,0,206,89
0.09203,0,207,89
0.019261,0,208,89
-0.13748,0,209,89
-0.29508,0,210,89
-0.49067,0,211,89
0.05077,0,212,89
0.13086,0,213,89
0.16918,0,214,89
0.22668,0,215,89
0.33752,0,216,89
0.093124,0,217,89
-0.20957,0,218,89
-0.35044,0,219,89
-0.051631,0,220,89
0.12698,0,221,89
-0.049562,0,222,89
0.23792,0,223,89
0.11411,0,224,89
-0.090071,0,225,89
-0.18123,0,226,89
-0.067275,0,227,89
-0.2168,0,228,89
-0.27918,0,229,89
-0.047412,0,230,89
0.11235,0,231,89
0.1918,0,232,89
0.22172,0,233,89
0.31711,0,234,89
0.080158,0,235,89
-0.2037,0,236,89
-0.28283,0,237,89
-0.16021,0,238,89
0.039985,0,239,89
-0.04353,0,240,89
0.16671,0,241,89
0.29272,0,242,89
0.56273,0,243,89
0.29027,0,244,89
-0.04426,0,245,89
-0.21335,0,246,89
-0.43342,0,247,89
-0.39677,0,248,89
0.13843,0,249,89
0.22989,0,250,89
0.074359,0,251,89
-0.13537,0,252,89
-0.21993,0,253,89
-0.03004,0,254,89
0.14048,0,255,89
0.28834,0,0,89
0.086053,0,1,89
-0.10242,0,2,89
-0.08013,0,3,89
0.13905,0,4,89
0.18879,0,5,89
-0.16164,0,6,89
-0.25367,0,7,89
-0.28536,0,8,89
-0.048854,0,9,89
-0.066559,0,10,89
0.077036,0,11,89
0.087836,0,12,89
-0.1622,0,13,89
-0.10782,0,14,89
0.057166,0,15,89
0.086082,0,16,89
0.21644,0,17,89
0.40154,0,18,89
0.43452,0,19,89
0.24554,0,20,89
-0.2022,0,21,89
-0.36139,0,22,89
-0.01646,0,23,89
-0.065409,0,24,89
-0.12895,0,25,89
-0.30775,0,26,89
-0.26946,0,27,89
-0.067557,0,28,89
-0.023099,0,29,89
0.011018,0,30,89
0.079489,0,31,89
0.14257,0,32,89
0.21416,0,33,89
0.11752,0,34,89
0.15123,0,35,89
0.19991,0,36,89
0.15308,0,37,89
0.31258,0,38,89
1.0745,0,39,89
0.18369,0,40,89
-0.96914,0,41,89
-1.3796,0,42,89
-0.83394,0,43,89
-0.18679,0,44,89
0.1041,0,45,89
0.047666,0,46,89
0.022992,0,47,89
0.074759,0,48,89
0.48805,0,49,89
0.30816,0,50,89
0.028356,0,51,89
-0.045427,0,52,89
0.11389,0,53,89
0.36927,0,54,89
0.31105,0,55,89
-0.10044,0,56,89
-0.29813,0,57,89
0.12895,0,58,89
0.21615,0,59,89
0.19237,0,60,89
-0.30346,0,61,89
-0.43016,0,62,89
-0.42449,0,63,89
-0.074027,0,64,89
0.27553,0,65,89
0.16431,0,66,89
-0.084852,0,67,89
0.20164,0,68,89
0.025465,0,69,89
-0.012976,0,70,89
-0.23529,0,71,89
-0.28409,0,72,89
-0.24025,0,73,89
-0.14885,0,74,89
-0.044307,0,75,89
-0.071951,0,76,89
-0.06469,0,77,89
0.49404,0,78,89
0.6122,0,79,89
0.31236,0,80,89
-0.052603,0,81,89
-0.26083,0,82,89
-0.26875,0,83,89
0.24216,0,84,89
-0.033299,0,85,89
-0.1084,0,86,89
-0.37467,0,87,89
-0.39865,0,88,89
-0.14918,0,89,89
0.1917,0,90,89
0.47332,0,91,89
0.37117,0,92,89
0.1892,0,93,89
0.18756,0,94,89
0.25997,0,95,89
0.049667,0,96,89
0.24054,0,97,89
0.049398,0,98,89
0.034484,0,99,89
0.012077,0,100,89
-0.22763,0,101,89
-0.44807,0,102,89
-0.3743,0,103,89
0.52789,0,104,89
0.95617,0,105,89
0.12252,0,106,89
-0.70315,0,107,89
-1.1675,0,108,89
-0.79283,0,109,89
-0.070309,0,110,89
0.26741,0,111,89
0.18016,0,112,89
-0.231,0,113,89
-0.362,0,114,89
-0.068593,0,115,89
0.53047,0,116,89
1.3557,0,117,89
0.77054,0,118,89
-0.12062,0,119,89
-0.67201,0,120,89
-0.79928,0,121,89
-0.56005,0,122,89
0.60432,0,123,89
0.74831,0,124,89
0.36648,0,125,89
-0.1277,0,126,89
-0.51777,0,127,89
-0.5184,0,128,89
-0.1186,0,129,89
0.12806,0,130,89
0.77159,0,131,89
0.85353,0,132,89
0.35191,0,133,89
-0.56014,0,134,89
-1.1407,0,135,89
-1.2538,0,136,89
-0.79268,0,137,89
0.45486,0,138,89
0.55939,0,139,89
0.31489,0,140,89
0.10761,0,141,89
0.19178,0,142,89
0.1302,0,143,89
0.049464,0,144,89
0.02673,0,145,89
-0.13591,0,146,89
-0.17317,0,147,89
0.24452,0,148,89
0.41425,0,149,89
0.27917,0,150,89
0.098283,0,151,89
-0.091419,0,152,89
-0.1878,0,153,89
-0.14823,0,154,89
0.11751,0,155,89
0.36169,0,156,89
0.4219,0,157,89
0.015284,0,158,89
-0.27793,0,159,89
-0.50605,0,160,89
-0.3423,0,161,89
0.47082,0,162,89
0.88307,0,163,89
0.8414,0,164,89
-0.14388,0,165,89
-0.95632,0,166,89
-1.1783,0,167,89
-1.1195,0,168,89
-0.51951,0,169,89
0.50702,0,170,89
1.2253,0,171,89
0.75137,0,172,89
-0.077352,0,173,89
-0.73803,0,174,89
-0.96764,0,175,89
-0.65037,0,176,89
-0.22397,0,177,89
0.22424,0,178,89
0.56661,0,179,89
0.48896,0,180,89
0.2371,0,181,89
0.13606,0,182,89
0.30824,0,183,89
0.26333,0,184,89
0.16102,0,185,89
0.17492,0,186,89
-0.015077,0,187,89
-0.34033,0,188,89
-0.52554,0,189,89
-0.51895,0,190,89
-0.37612,0,191,89
-0.10214,0,192,89
0.2838,0,193,89
0.59337,0,194,89
0.65426,0,195,89
0.41118,0,196,89
0.085577,0,197,89
-0.25564,0,198,89
-0.28166,0,199,89
0.037188,0,200,89
0.76446,0,201,89
0.56929,0,202,89
0.053319,0,203,89
-0.58916,0,204,89
-0.66255,0,205,89
-0.51343,0,206,89
-0.25099,0,207,89
-0.12232,0,208,89
0.038667,0,209,89
0.14772,0,210,89
0.35106,0,211,89
0.14324,0,212,89
-0.051075,0,213,89
-0.19027,0,214,89
-0.3217,0,215,89
-0.22815,0,216,89
-0.20657,0,217,89
0.011777,0,218,89
0.32184,0,219,89
0.18913,0,220,89
0.17187,0,221,89
0.22199,0,222,89
0.1519,0,223,89
-0.088517,0,224,89
-0.29264,0,225,89
-0.34133,0,226,89
0.080057,0,227,89
0.10965,0,228,89
-0.058657,0,229,89
-0.2142,0,230,89
0.069112,0,231,89
0.84751,0,232,89
1.38,0,233,89
0.90805,0,234,89
-0.012038,0,235,89
-0.91904,0,236,89
-1.5892,0,237,89
-1.6368,0,238,89
-1.1358,0,239,89
-0.43376,0,240,89
0.66887,0,241,89
1.2708,0,242,89
1.0465,0,243,89
0.51839,0,244,89
-0.14424,0,245,89
-0.65461,0,246,89
-0.56104,0,247,89
0.04193,0,248,89
0.52946,0,249,89
0.6591,0,250,89
0.39854,0,251,89
0.067413,0,252,89
-0.029592,0,253,89
-0.13911,0,254,89
-0.022659,0,255,89
0.41633,0,0,89
0.52443,0,1,89
0.67326,0,2,89
0.36074,0,3,89
0.13408,0,4,89
0.067274,0,5,89
-0.21989,0,6,89
-0.62008,0,7,89
-0.81937,0,8,89
-0.89774,0,9,89
-0.61207,0,10,89
-0.31641,0,11,89
-0.11748,0,12,89
0.46282,0,13,89
0.88622,0,14,89
1.0693,0,15,89
0.80462,0,16,89
-0.05698,0,17,89
-0.85209,0,18,89
-1.4337,0,19,89
-1.5778,0,20,89
-1.2345,0,21,89
-0.64037,0,22,89
-0.055309,0,23,89
0.84531,0,24,89
1.3028,0,25,89
1.2289,0,26,89
0.81916,0,27,89
0.25736,0,28,89
-0.38889,0,29,89
-0.91221,0,30,89
-0.63884,0,31,89
0.052593,0,32,89
0.27956,0,33,89
0.16182,0,34,89
-0.14731,0,35,89
-0.4428,0,36,89
-0.56023,0,37,89
-0.39395,0,38,89
-0.079865,0,39,89
0.91753,0,40,89
1.5146,0,41,89
1.6018,0,42,89
0.93466,0,43,89
0.022214,0,44,89
-0.92154,0,45,89
-1.2705,0,46,89
-1.1011,0,47,89
-0.59139,0,48,89
-0.029447,0,49,89
0.12896,0,50,89
0.052567,0,51,89
0.022125,0,52,89
-0.011058,0,53,89
0.0433,0,54,89
0.13753,0,55,89
0.21983,0,56,89
0.40105,0,57,89
0.5718,0,58,89
0.47876,0,59,89
0.22336,0,60,89
-0.22382,0,61,89
-0.52634,0,62,89
-0.59058,0,63,89
0.12276,0,64,89
0.53939,0,65,89
0.909,0,66,89
0.54953,0,67,89
-0.18415,0,68,89
-0.83232,0,69,89
-1.2879,0,70,89
-1.2843,0,71,89
-0.13625,0,72,89
0.8144,0,73,89
1.2498,0,74,89
0.64929,0,75,89
-0.22597,0,76,89
-1.071,0,77,89
-1.6812,0,78,89
-1.6374,0,79,89
-0.68826,0,80,89
0.19388,0,81,89
0.70984,0,82,89
0.89836,0,83,89
0.866,0,84,89
0.80237,0,85,89
0.59801,0,86,89
0.35426,0,87,89
0.2335,0,88,89
0.25944,0,89,89
0.59057,0,90,89
0.71346,0,91,89
0.81594,0,92,89
0.52617,0,93,89
-0.080723,0,94,89
-0.53142,0,95,89
-0.81934,0,96,89
-0.72599,0,97,89
-0.42767,0,98,89
-0.085293,0,99,89
0.23698,0,100,89
0.51065,0,101,89
0.48063,0,102,89
0.4113,0,103,89
-0.37813,0,104,89
-0.68268,0,105,89
-0.87285,0,106,89
-0.61836,0,107,89
-0.33644,0,108,89
-0.067444,0,109,89
0.11694,0,110,89
0.19071,0,111,89
0.33882,0,112,89
0.47017,0,113,89
0.37875,0,114,89
0.25816,0,115,89
0.049616,0,116,89
-0.11069,0,117,89
-0.20002,0,118,89
-0.31948,0,119,89
-0.31684,0,120,89
-0.11291,0,121,89
0.027794,0,122,89
-0.078166,0,123,89
-0.19857,0,124,89
-0.25005,0,125,89
-0.31269,0,126,89
-0.22978,0,127,89
-0.11676,0,128,89
-0.045404,0,129,89
0.046996,0,130,89
0.13075,0,131,89
0.21195,0,132,89
0.33416,0,133,89
0.37554,0,134,89
0.39283,0,135,89
0.32616,0,136,89
0.037929,0,137,89
-0.30588,0,138,89
-0.52812,0,139,89
-0.58861,0,140,89
-0.45897,0,141,89
-0.23649,0,142,89
-0.13131,0,143,89
-0.035259,0,144,89
0.081954,0,145,89
0.1311,0,146,89
0.14446,0,147,89
0.15711,0,148,89
0.10495,0,149,89
0.12534,0,150,89
0.12692,0,151,89
0.09234,0,152,89
0.0456,0,153,89
0.034276,0,154,89
0.053479,0,155,89
0.055271,0,156,89
0.047318,0,157,89
0.016908,0,158,89
0.033738,0,159,89
0.052475,0,160,89
0.040657,0,161,89
0.055607,0,162,89
0.044679,0,163,89
0.11651,0,164,89
0.13721,0,165,89
0.04445,0,166,89
-0.039235,0,167,89
-0.076303,0,168,89
-0.0614,0,169,89
-0.011712,0,170,89
0.023117,0,171,89
0.044774,0,172,89
0.10036,0,173,89
0.14307,0,174,89
0.12063,0,175,89
0.018681,0,176,89
-0.11641,0,177,89
-0.15161,0,178,89
-0.13204,0,179,89
-0.10812,0,180,89
-0.072241,0,181,89
-0.010491,0,182,89
0.011678,0,183,89
0.037908,0,184,89
0.10642,0,185,89
0.1254,0,186,89
0.21241,0,187,89
0.33053,0,188,89
0.36833,0,189,89
0.32704,0,190,89
0.10851,0,191,89
-0.090764,0,192,89
-0.14846,0,193,89
-0.31304,0,194,89
-0.42313,0,195,89
-0.30567,0,196,89
-0.10489,0,197,89
0.16492,0,198,89
0.36219,0,199,89
0.49493,0,200,89
0.46476,0,201,89
0.35926,0,202,89
0.03859,0,203,89
-0.37274,0,204,89
-0.65752,0,205,89
-0.81277,0,206,89
-0.57295,0,207,89
-0.16077,0,208,89
0.22255,0,209,89
0.65506,0,210,89
0.65195,0,211,89
0.25898,0,212,89
-0.1921,0,213,89
-0.62929,0,214,89
-0.78588,0,215,89
-0.53523,0,216,89
-0.1854,0,217,89
0.064949,0,218,89
0.1584,0,219,89
0.030667,0,220,89
-0.086076,0,221,89
-0.12704,0,222,89
-0.16558,0,223,89
-0.052298,0,224,89
0.20004,0,225,89
0.63799,0,226,89
0.911,0,227,89
0.90058,0,228,89
0.94922,0,229,89
0.64571,0,230,89
0.062663,0,231,89
-0.40901,0,232,89
-0.93731,0,233,89
-1.2439,0,234,89
-1.0597,0,235,89
-0.6248,0,236,89
-0.29579,0,237,89
0.12934,0,238,89
0.66477,0,239,89
0.8995,0,240,89
0.77327,0,241,89
0.56804,0,242,89
0.09314,0,243,89
-0.63052,0,244,89
-1.196,0,245,89
-0.8861,0,246,89
-0.31048,0,247,89
0.27106,0,248,89
0.78441,0,249,89
0.61753,0,250,89
-0.20881,0,251,89
-1.056,0,252,89
-1.2668,0,253,89
-0.7546,0,254,89
-0.049099,0,255,89
0.63133,0,0,89
0.66349,0,1,89
0.47415,0,2,89
0.32084,0,3,89
0.58235,0,4,89
0.74985,0,5,89
0.76418,0,6,89
0.34541,0,7,89
-0.15539,0,8,89
-0.71124,0,9,89
-1.188,0,10,89
-0.93638,0,11,89
-0.25186,0,12,89
0.51767,0,13,89
1.0601,0,14,89
1.2364,0,15,89
0.86491,0,16,89
0.44216,0,17,89
0.19559,0,18,89
0.14949,0,19,89
-0.011111,0,20,89
-0.39893,0,21,89
-0.54302,0,22,89
-0.27703,0,23,89
-0.37908,0,24,89
-0.17259,0,25,89
0.28099,0,26,89
0.24725,0,27,89
-0.027443,0,28,89
-0.49507,0,29,89
-0.9882,0,30,89
-0.76315,0,31,89
-0.36695,0,32,89
-0.23497,0,33,89
-0.042123,0,34,89
0.1477,0,35,89
0.57352,0,36,89
0.67229,0,37,89
0.84965,0,38,89
1.1719,0,39,89
0.59991,0,40,89
-0.27203,0,41,89
-1.2092,0,42,89
-1.8534,0,43,89
-1.9383,0,44,89
-0.85321,0,45,89
0.43939,0,46,89
1.121,0,47,89
1.18,0,48,89
0.39187,0,49,89
-0.46823,0,50,89
-1.1182,0,51,89
-1.04,0,52,89
-0.28515,0,53,89
0.70102,0,54,89
1.4937,0,55,89
1.6763,0,56,89
1.035,0,57,89
1.5706,0,58,89
1.1928,0,59,89
0.87166,0,60,89
-1.3533,0,61,89
-2.5426,0,62,89
-3.3271,0,63,89
-3.0184,0,64,89
-1.7518,0,65,89
-0.40875,0,66,89
0.64,0,67,89
1.0351,0,68,89
1.3951,0,69,89
1.7829,0,70,89
1.9207,0,71,89
1.6326,0,72,89
1.8671,0,73,89
1.3053,0,74,89
1.1024,0,75,89
1.2771,0,76,89
0.57969,0,77,89
-0.10443,0,78,89
-0.64124,0,79,89
-1.4709,0,80,89
-2.3477,0,81,89
-2.5764,0,82,89
-1.2232,0,83,89
-0.17295,0,84,89
0.92362,0,85,89
1.037,0,86,89
0.88227,0,87,89
-0.029879,0,88,89
-0.71592,0,89,89
-0.45187,0,90,89
0.18564,0,91,89
0.89695,0,92,89
1.0155,0,93,89
-0.97752,0,94,89
-1.3436,0,95,89
-1.373,0,96,89
-0.12764,0,97,89
0.37595,0,98,89
0.17568,0,99,89
-0.6387,0,100,89
-1.4889,0,101,89
-1.3817,0,102,89
-0.54428,0,103,89
0.48666,0,104,89
1.9346,0,105,89
1.8418,0,106,89
1.0069,0,107,89
-0.29903,0,108,89
-0.85601,0,109,89
0.015981,0,110,89
1.4373,0,111,89
1.4654,0,112,89
0.57762,0,113,89
-0.62767,0,114,89
-1.3835,0,115,89
-1.1288,0,116,89
-0.61328,0,117,89
0.010893,0,118,89
0.35276,0,119,89
0.22789,0,120,89
-0.40234,0,121,89
0.35429,0,122,89
1.0478,0,123,89
1.2653,0,124,89
0.71431,0,125,89
-0.21602,0,126,89
-1.0511,0,127,89
-1.7751,0,128,89
-2.0189,0,129,89
-1.6362,0,130,89
-0.70643,0,131,89
0.69011,0,132,89
1.3219,0,133,89
2.1328,0,134,89
2.7541,0,135,89
1.9975,0,136,89
0.50229,0,137,89
-1.1311,0,138,89
-2.4288,0,139,89
-2.5181,0,140,89
-0.61857,0,141,89
2.0521,0,142,89
2.8661,0,143,89
1.7981,0,144,89
-0.043,0,145,89
-1.9823,0,146,89
-2.9751,0,147,89
-2.0385,0,148,89
-0.68708,0,149,89
0.17744,0,150,89
0.90602,0,151,89
1.2586,0,152,89
1.7448,0,153,89
1.24,0,154,89
0.056358,0,155,89
-0.67334,0,156,89
-0.88463,0,157,89
-1.3323,0,158,89
-0.67738,0,159,89
0.025586,0,160,89
0.28189,0,161,89
0.53908,0,162,89
0.075845,0,163,89
-0.54235,0,164,89
-0.74974,0,165,89
0.54858,0,166,89
0.92294,0,167,89
0.33268,0,168,89
-0.4808,0,169,89
-1.0523,0,170,89
-0.94264,0,171,89
0.16167,0,172,89
0.59326,0,173,89
1.2311,0,174,89
1.3216,0,175,89
0.15079,0,176,89
-0.98025,0,177,89
-0.85748,0,178,89
0.054429,0,179,89
0.070669,0,180,89
0.10504,0,181,89
1.0872,0,182,89
1.2714,0,183,89
0.31025,0,184,89
-0.50917,0,185,89
-0.054744,0,186,89
-0.01795,0,187,89
-0.6111,0,188,89
-1.2801,0,189,89
-1.6056,0,190,89
-1.1657,0,191,89
0.56825,0,192,89
1.1282,0,193,89
1.0512,0,194,89
2.4354,0,195,89
1.8611,0,196,89
-1.6406,0,197,89
-2.5504,0,198,89
-2.5069,0,199,89
-1.7765,0,200,89
0.088059,0,201,89
3.6303,0,202,89
2.5114,0,203,89
0.29727,0,204,89
-1.6207,0,205,89
-2.8784,0,206,89
-2.4215,0,207,89
-1.0308,0,208,89
-0.35115,0,209,89
0.067412,0,210,89
-0.044001,0,211,89
-0.53963,0,212,89
-0.15536,0,213,89
1.1499,0,214,89
1.3605,0,215,89
0.90649,0,216,89
1.1659,0,217,89
0.81802,0,218,89
0.55809,0,219,89
-0.7398,0,220,89
-1.1596,0,221,89
-0.13324,0,222,89
0.2941,0,223,89
-0.39638,0,224,89
-0.88255,0,225,89
-0.67843,0,226,89
-0.18131,0,227,89
1.077,0,228,89
1.7054,0,229,89
0.81968,0,230,89
0.078182,0,231,89
-1.0245,0,232,89
-1.6877,0,233,89
-0.88492,0,234,89
-0.96169,0,235,89
-1.2091,0,236,89
-0.72361,0,237,89
-0.30469,0,238,89
-0.041584,0,239,89
0.2878,0,240,89
0.60411,0,241,89
1.2998,0,242,89
1.4681,0,243,89
2.3786,0,244,89
1.5854,0,245,89
0.53401,0,246,89
-0.93978,0,247,89
-2.0514,0,248,89
-2.4917,0,249,89
-0.697,0,250,89
0.41175,0,251,89
1.0313,0,252,89
0.64403,0,253,89
-0.67369,0,254,89
-1.6224,0,255,89
-1.6935,0,0,89
-0.51011,0,1,89
0.5457,0,2,89
1.3291,0,3,89
1.2966,0,4,89
0.37942,0,5,89
-0.43956,0,6,89
1.6816,0,7,89
1.8604,0,8,89
0.48152,0,9,89
-0.99325,0,10,89
-1.8506,0,11,89
-1.306,0,12,89
-1.6199,0,13,89
-1.3753,0,14,89
-0.41485,0,15,89
0.5097,0,16,89
1.0858,0,17,89
0.62798,0,18,89
1.8317,0,19,89
1.9859,0,20,89
2.9403,0,21,89
0.81337,0,22,89
-1.4383,0,23,89
-2.1064,0,24,89
-2.5586,0,25,89
-2.3356,0,26,89
0.16633,0,27,89
1.9198,0,28,89
1.1667,0,29,89
0.015423,0,30,89
-0.3837,0,31,89
-0.66885,0,32,89
-0.8368,0,33,89
-0.29966,0,34,89
1.2011,0,35,89
1.5995,0,36,89
0.39808,0,37,89
-0.51951,0,38,89
0.54676,0,39,89
1.418,0,40,89
0.40519,0,41,89
0.47337,0,42,89
0.11277,0,43,89
-0.40286,0,44,89
-1.1128,0,45,89
-0.5879,0,46,89
0.34415,0,47,89
-0.14653,0,48,89
-0.20403,0,49,89
-0.48711,0,50,89
-0.57124,0,51,89
0.54455,0,52,89
0.029131,0,53,89
-0.43076,0,54,89
0.56475,0,55,89
0.12163,0,56,89
-0.78891,0,57,89
-0.36868,0,58,89
0.50737,0,59,89
0.039074,0,60,89
0.11086,0,61,89
-0.082617,0,62,89
-0.89091,0,63,89
-0.8853,0,64,89
-0.47633,0,65,89
-0.48197,0,66,89
-0.5535,0,67,89
-0.4136,0,68,89
-0.32789,0,69,89
1.5589,0,70,89
2.7955,0,71,89
1.087,0,72,89
-0.36838,0,73,89
-0.97106,0,74,89
-0.94517,0,75,89
-0.43342,0,76,89
-0.22122,0,77,89
-0.30769,0,78,89
-0.56227,0,79,89
-0.38698,0,80,89
0.21696,0,81,89
1.0071,0,82,89
3.2166,0,83,89
2.5198,0,84,89
0.36507,0,85,89
-1.7175,0,86,89
-2.9552,0,87,89
-2.9822,0,88,89
-1.6321,0,89,89
0.10866,0,90,89
1.2007,0,91,89
1.1173,0,92,89
0.35619,0,93,89
0.19355,0,94,89
1.4792,0,95,89
1.6414,0,96,89
0.78145,0,97,89
-0.72357,0,98,89
-1.8714,0,99,89
-1.7345,0,100,89
-0.34839,0,101,89
1.4658,0,102,89
1.7482,0,103,89
0.81188,0,104,89
-0.5602,0,105,89
-1.552,0,106,89
-1.0291,0,107,89
0.047159,0,108,89
0.30387,0,109,89
0.032227,0,110,89
-0.14683,0,111,89
0.43349,0,112,89
1.1569,0,113,89
0.88017,0,114,89
-0.27409,0,115,89
-0.93429,0,116,89
-1.0659,0,117,89
-0.23531,0,118,89
1.1093,0,119,89
0.8708,0,120,89
-0.42028,0,121,89
-1.2169,0,122,89
-1.1097,0,123,89
0.39808,0,124,89
1.2628,0,125,89
0.76388,0,126,89
-0.41256,0,127,89
-0.96625,0,128,89
-0.68224,0,129,89
-0.050634,0,130,89
0.40283,0,131,89
0.78226,0,132,89
1.3967,0,133,89
0.58212,0,134,89
-0.7134,0,135,89
-1.3616,0,136,89
-1.0082,0,137,89
0.44253,0,138,89
1.3495,0,139,89
0.65579,0,140,89
-0.26964,0,141,89
-1.207,0,142,89
-0.7545,0,143,89
0.2561,0,144,89
0.66703,0,145,89
1.3293,0,146,89
0.58886,0,147,89
-0.41541,0,148,89
-1.1278,0,149,89
-0.90805,0,150,89
0.093103,0,151,89
0.39721,0,152,89
0.37245,0,153,89
0.23605,0,154,89
0.1699,0,155,89
-0.26453,0,156,89
-0.55922,0,157,89
-0.6943,0,158,89
-0.44146,0,159,89
0.29967,0,160,89
0.91644,0,161,89
0.86246,0,162,89
0.60145,0,163,89
-0.012158,0,164,89
-0.18372,0,165,89
-0.52109,0,166,89
-0.79495,0,167,89
0.016859,0,168,89
0.090584,0,169,89
-0.21714,0,170,89
-0.04997,0,171,89
0.47291,0,172,89
0.86942,0,173,89
0.53592,0,174,89
-0.23046,0,175,89
-0.84277,0,176,89
-0.93193,0,177,89
0.25563,0,178,89
0.83077,0,179,89
0.60133,0,180,89
-0.31688,0,181,89
-1.4406,0,182,89
-1.7325,0,183,89
-0.016282,0,184,89
0.97148,0,185,89
0.75006,0,186,89
-0.31955,0,187,89
-0.82692,0,188,89
-0.51385,0,189,89
0.10313,0,190,89
1.109,0,191,89
1.2584,0,192,89
0.60606,0,193,89
-0.37687,0,194,89
-0.6017,0,195,89
-0.3418,0,196,89
-0.16698,0,197,89
-0.019043,0,198,89
0.48691,0,199,89
0.53776,0,200,89
0.11514,0,201,89
0.6421,0,202,89
0.54335,0,203,89
-0.79205,0,204,89
-1.5354,0,205,89
-1.4521,0,206,89
-0.82894,0,207,89
0.68153,0,208,89
1.371,0,209,89
0.93149,0,210,89
0.22369,0,211,89
-0.085663,0,212,89
0.10983,0,213,89
0.33903,0,214,89
0.53481,0,215,89
0.74246,0,216,89
-0.17704,0,217,89
-1.1704,0,218,89
-0.11014,0,219,89
0.047944,0,220,89
-0.61067,0,221,89
-1.1746,0,222,89
-0.38877,0,223,89
0.52517,0,224,89
1.2526,0,225,89
1.1442,0,226,89
-0.1213,0,227,89
-1.0557,0,228,89
-1.4803,0,229,89
-0.30776,0,230,89
1.1696,0,231,89
0.89437,0,232,89
0.1185,0,233,89
-0.4475,0,234,89
-0.15913,0,235,89
0.033102,0,236,89
0.55146,0,237,89
1.2156,0,238,89
1.1262,0,239,89
-0.28437,0,240,89
-1.0958,0,241,89
-0.88312,0,242,89
-0.2528,0,243,89
0.53782,0,244,89
0.86885,0,245,89
0.62997,0,246,89
0.25012,0,247,89
-0.62853,0,248,89
-0.87445,0,249,89
-0.91194,0,250,89
-0.55802,0,251,89
0.32107,0,252,89
0.16442,0,253,89
-0.58191,0,254,89
-0.88307,0,255,89
-0.25969,0,0,89
0.026526,0,1,89
0.37036,0,2,89
0.66973,0,3,89
0.49389,0,4,89
0.50848,0,5,89
0.82566,0,6,89
0.39358,0,7,89
0.069898,0,8,89
-1.1854,0,9,89
-1.5073,0,10,89
-0.99463,0,11,89
-0.33564,0,12,89
0.16461,0,13,89
0.29957,0,14,89
-0.16292,0,15,89
-0.097488,0,16,89
-0.30117,0,17,89
0.038521,0,18,89
0.42248,0,19,89
1.2735,0,20,89
1.1979,0,21,89
0.18878,0,22,89
-0.41612,0,23,89
-0.8193,0,24,89
-0.51754,0,25,89
-0.040484,0,26,89
1.3141,0,27,89
1.3935,0,28,89
0.1163,0,29,89
-1.1476,0,30,89
-1.6759,0,31,89
-0.74941,0,32,89
0.010534,0,33,89
0.61477,0,34,89
0.43349,0,35,89
0.064272,0,36,89
-0.18112,0,37,89
0.22506,0,38,89
0.52299,0,39,89
0.84888,0,40,89
0.50186,0,41,89
-0.30894,0,42,89
-1.4008,0,43,89
-1.0663,0,44,89
-0.10352,0,45,89
1.0425,0,46,89
1.1194,0,47,89
0.63508,0,48,89
0.61243,0,49,89
0.14843,0,50,89
-0.51168,0,51,89
-0.22683,0,52,89
0.90344,0,53,89
0.69261,0,54,89
-0.27815,0,55,89
-1.4049,0,56,89
-1.3067,0,57,89
-0.78996,0,58,89
-0.52149,0,59,89
-0.28588,0,60,89
0.25324,0,61,89
0.72365,0,62,89
1.1807,0,63,89
0.84614,0,64,89
0.23365,0,65,89
-0.13907,0,66,89
-0.45995,0,67,89
-0.43239,0,68,89
-0.41862,0,69,89
0.041849,0,70,89
0.71081,0,71,89
0.62715,0,72,89
-0.076324,0,73,89
-0.60459,0,74,89
-0.76571,0,75,89
-0.21928,0,76,89
0.77391,0,77,89
0.57731,0,78,89
-0.29608,0,79,89
1.7139,0,80,89
1.5129,0,81,89
-0.39072,0,82,89
-2.3367,0,83,89
-2.7351,0,84,89
-1.4298,0,85,89
-0.013714,0,86,89
1.7909,0,87,89
1.3275,0,88,89
-0.071531,0,89,89
-0.90319,0,90,89
-1.113,0,91,89
-0.23043,0,92,89
0.57827,0,93,89
1.045,0,94,89
0.38756,0,95,89
0.22697,0,96,89
-0.13464,0,97,89
-0.15732,0,98,89
0.21249,0,99,89
0.61713,0,100,89
0.14885,0,101,89
-0.65556,0,102,89
-1.0487,0,103,89
-0.53448,0,104,89
0.6861,0,105,89
1.4098,0,106,89
0.67285,0,107,89
-0.69028,0,108,89
-1.6477,0,109,89
-1.3373,0,110,89
1.4399,0,111,89
1.712,0,112,89
0.50633,0,113,89
-0.73077,0,114,89
-1.1598,0,115,89
-0.39447,0,116,89
0.51064,0,117,89
0.37435,0,118,89
0.75437,0,119,89
0.65758,0,120,89
-0.46666,0,121,89
-0.99664,0,122,89
-1.1136,0,123,89
-0.79157,0,124,89
-0.013316,0,125,89
0.42388,0,126,89
1.0348,0,127,89
1.1007,0,128,89
0.56913,0,129,89
-0.13113,0,130,89
-0.47088,0,131,89
-0.14685,0,132,89
1.735,0,133,89
0.65856,0,134,89
-0.81463,0,135,89
-1.7238,0,136,89
-1.6696,0,137,89
-0.65654,0,138,89
0.16031,0,139,89
0.50142,0,140,89
1.1964,0,141,89
0.92539,0,142,89
-0.10836,0,143,89
-0.73789,0,144,89
-0.45761,0,145,89
-0.27511,0,146,89
0.16278,0,147,89
0.35292,0,148,89
0.63615,0,149,89
1.109,0,150,89
0.27482,0,151,89
-0.75502,0,152,89
-0.75997,0,153,89
-0.47961,0,154,89
-0.18352,0,155,89
0.47669,0,156,89
0.52048,0,157,89
0.53117,0,158,89
0.8273,0,159,89
0.75077,0,160,89
-0.26501,0,161,89
-1.2052,0,162,89
-0.96952,0,163,89
-0.67769,0,164,89
-0.35706,0,165,89
-0.20197,0,166,89
0.14722,0,167,89
1.077,0,168,89
1.2275,0,169,89
0.31909,0,170,89
-0.69277,0,171,89
-1.1452,0,172,89
-0.85704,0,173,89
-0.20649,0,174,89
0.31913,0,175,89
0.41379,0,176,89
0.12474,0,177,89
0.078296,0,178,89
0.16893,0,179,89
0.27791,0,180,89
1.0642,0,181,89
0.38527,0,182,89
-0.45966,0,183,89
-0.64733,0,184,89
0.075383,0,185,89
0.45808,0,186,89
0.16685,0,187,89
-0.39961,0,188,89
-0.88723,0,189,89
-0.88504,0,190,89
0.40154,0,191,89
0.37772,0,192,89
-0.17522,0,193,89
-0.77859,0,194,89
-0.99983,0,195,89
-0.28252,0,196,89
0.27223,0,197,89
0.4851,0,198,89
0.95352,0,199,89
0.93948,0,200,89
0.3804,0,201,89
0.069702,0,202,89
0.19623,0,203,89
0.38425,0,204,89
-0.051853,0,205,89
-0.55637,0,206,89
-0.30584,0,207,89
-0.17428,0,208,89
0.098742,0,209,89
0.62712,0,210,89
0.58752,0,211,89
-0.15562,0,212,89
-0.62948,0,213,89
-0.53504,0,214,89
-0.1424,0,215,89
-0.18135,0,216,89
-0.25519,0,217,89
-0.16121,0,218,89
0.081368,0,219,89
0.30241,0,220,89
0.15312,0,221,89
0.46858,0,222,89
0.42745,0,223,89
-0.1011,0,224,89
-0.52751,0,225,89
-0.74474,0,226,89
-0.52602,0,227,89
0.027072,0,228,89
0.2677,0,229,89
0.18025,0,230,89
0.1101,0,231,89
0.079547,0,232,89
-0.2372,0,233,89
-0.35072,0,234,89
-0.14563,0,235,89
0.33326,0,236,89
0.58901,0,237,89
0.6989,0,238,89
0.53678,0,239,89
0.17539,0,240,89
-0.202,0,241,89
-0.4294,0,242,89
-0.36126,0,243,89
0.19119,0,244,89
0.53543,0,245,89
-0.059944,0,246,89
-0.80536,0,247,89
-0.76578,0,248,89
-0.17566,0,249,89
0.14073,0,250,89
0.16414,0,251,89
-0.062114,0,252,89
0.19017,0,253,89
0.29967,0,254,89
0.28372,0,255,89
0.21252,0,0,89
-0.1271,0,1,89
-0.34447,0,2,89
-0.1666,0,3,89
0.22755,0,4,89
0.38511,0,5,89
0.2439,0,6,89
0.11484,0,7,89
-0.028086,0,8,89
0.073679,0,9,89
0.4314,0,10,89
0.23897,0,11,89
-0.34089,0,12,89
-0.75467,0,13,89
-0.4488,0,14,89
-0.29747,0,15,89
-0.06296,0,16,89
0.10038,0,17,89
0.2665,0,18,89
0.32096,0,19,89
0.22811,0,20,89
0.1654,0,21,89
0.10084,0,22,89
-0.29269,0,23,89
-0.34806,0,24,89
-0.23237,0,25,89
0.37108,0,26,89
0.27821,0,27,89
-0.07683,0,28,89
-0.57955,0,29,89
-0.47994,0,30,89
-0.36539,0,31,89
-0.011135,0,32,89
0.46571,0,33,89
0.94786,0,34,89
0.75858,0,35,89
0.12981,0,36,89
-0.47472,0,37,89
-0.51548,0,38,89
-0.41729,0,39,89
-0.51597,0,40,89
-0.29226,0,41,89
0.025523,0,42,89
0.29209,0,43,89
0.3633,0,44,89
0.36278,0,45,89
0.031045,0,46,89
-0.41166,0,47,89
-0.42701,0,48,89
0.089847,0,49,89
0.33154,0,50,89
0.21054,0,51,89
-0.1337,0,52,89
-0.26609,0,53,89
-0.34592,0,54,89
0.013194,0,55,89
0.21517,0,56,89
0.33447,0,57,89
0.28615,0,58,89
0.22176,0,59,89
0.12345,0,60,89
0.13967,0,61,89
0.063061,0,62,89
0.24154,0,63,89
0.34601,0,64,89
-0.26421,0,65,89
-0.23495,0,66,89
-0.26735,0,67,89
-0.15928,0,68,89
0.12616,0,69,89
-0.078796,0,70,89
-0.29729,0,71,89
-0.33079,0,72,89
0.06551,0,73,89
0.16467,0,74,89
0.31432,0,75,89
0.30778,0,76,89
0.034987,0,77,89
-0.23563,0,78,89
-0.06318,0,79,89
-0.066913,0,80,89
-0.18991,0,81,89
0.081726,0,82,89
0.2779,0,83,89
0.37833,0,84,89
0.28921,0,85,89
-0.17616,0,86,89
-0.23542,0,87,89
-0.38725,0,88,89
-0.33178,0,89,89
-0.14551,0,90,89
0.070939,0,91,89
0.099178,0,92,89
-0.091752,0,93,89
-0.098936,0,94,89
-0.06905,0,95,89
-0.02487,0,96,89
-0.1154,0,97,89
-0.1968,0,98,89
-0.052914,0,99,89
0.18079,0,100,89
0.24339,0,101,89
0.097903,0,102,89
0.072141,0,103,89
-0.024079,0,104,89
-0.26406,0,105,89
-0.30671,0,106,89
0.12104,0,107,89
0.17743,0,108,89
-0.06862,0,109,89
0.059002,0,110,89
0.10299,0,111,89
0.1425,0,112,89
0.14293,0,113,89
0.010864,0,114,89
0.15922,0,115,89
0.48168,0,116,89
0.3995,0,117,89
-0.15657,0,118,89
-0.21943,0,119,89
-0.16821,0,120,89
-0.050572,0,121,89
0.14029,0,122,89
0.45372,0,123,89
0.072289,0,124,89
-0.40546,0,125,89
-0.6586,0,126,89
-0.4017,0,127,89
-0.11156,0,128,89
0.076235,0,129,89
0.11738,0,130,89
0.33884,0,131,89
0.27803,0,132,89
-0.26138,0,133,89
-0.20393,0,134,89
0.21646,0,135,89
0.37471,0,136,89
0.32392,0,137,89
0.1103,0,138,89
-0.017384,0,139,89
-0.075676,0,140,89
-0.16183,0,141,89
0.035184,0,142,89
0.040254,0,143,89
-0.048233,0,144,89
0.024423,0,145,89
-0.1719,0,146,89
-0.28282,0,147,89
-0.21244,0,148,89
0.25212,0,149,89
0.68251,0,150,89
0.30491,0,151,89
-0.16162,0,152,89
-0.45314,0,153,89
-0.50328,0,154,89
-0.18761,0,155,89
-0.12299,0,156,89
-0.14305,0,157,89
-0.13497,0,158,89
0.050644,0,159,89
0.24135,0,160,89
-0.13144,0,161,89
-0.47197,0,162,89
-0.3801,0,163,89
0.21064,0,164,89
0.41839,0,165,89
0.29487,0,166,89
-0.089574,0,167,89
0.054027,0,168,89
-0.1092,0,169,89
-0.19564,0,170,89
-0.19691,0,171,89
-0.081006,0,172,89
0.14478,0,173,89
0.35724,0,174,89
0.4814,0,175,89
0.18213,0,176,89
0.081299,0,177,89
-0.12573,0,178,89
-0.026861,0,179,89
0.23085,0,180,89
0.35008,0,181,89
0.072364,0,182,89
-0.30159,0,183,89
-0.14646,0,184,89
-0.029486,0,185,89
0.027757,0,186,89
-0.17137,0,187,89
-0.22587,0,188,89
-0.033983,0,189,89
-0.074559,0,190,89
-0.10264,0,191,89
-0.2637,0,192,89
-0.033715,0,193,89
0.57699,0,194,89
0.65728,0,195,89
0.052905,0,196,89
-0.60061,0,197,89
-0.64454,0,198,89
-0.12275,0,199,89
0.13946,0,200,89
0.20183,0,201,89
0.13048,0,202,89
0.2548,0,203,89
0.078561,0,204,89
-0.14972,0,205,89
-0.23562,0,206,89
-0.4792,0,207,89
-0.082335,0,208,89
0.179,0,209,89
0.28714,0,210,89
0.030639,0,211,89
-0.14888,0,212,89
-0.019384,0,213,89
0.27752,0,214,89
0.11754,0,215,89
-0.13854,0,216,89
-0.2132,0,217,89
-0.11018,0,218,89
0.24793,0,219,89
0.31647,0,220,89
0.23684,0,221,89
0.20165,0,222,89
0.099431,0,223,89
-0.17669,0,224,89
0.09977,0,225,89
-0.058484,0,226,89
-0.10741,0,227,89
-0.11483,0,228,89
-0.14062,0,229,89
-0.021556,0,230,89
0.44085,0,231,89
0.576,0,232,89
0.014339,0,233,89
-0.19305,0,234,89
0.027165,0,235,89
-0.22331,0,236,89
-0.46832,0,237,89
-0.37254,0,238,89
-0.28951,0,239,89
-0.1441,0,240,89
0.17642,0,241,89
-0.068377,0,242,89
-0.085701,0,243,89
0.077767,0,244,89
0.027825,0,245,89
0.37213,0,246,89
0.32028,0,247,89
0.62858,0,248,89
0.076464,0,249,89
-0.11868,0,250,89
0.25427,0,251,89
0.21616,0,252,89
-0.40258,0,253,89
-0.87499,0,254,89
-1.0911,0,255,89
-0.65654,0,0,89
-0.12976,0,1,89
0.21969,0,2,89
0.38837,0,3,89
0.45225,0,4,89
0.4237,0,5,89
0.25343,0,6,89
0.24892,0,7,89
0.26708,0,8,89
0.23801,0,9,89
0.069493,0,10,89
-0.22175,0,11,89
-0.20091,0,12,89
-0.13562,0,13,89
-0.03064,0,14,89
0.36702,0,15,89
0.79835,0,16,89
0.31515,0,17,89
-0.31177,0,18,89
-0.72228,0,19,89
-0.74506,0,20,89
-0.2605,0,21,89
0.3395,0,22,89
0.33354,0,23,89
-0.44448,0,24,89
-0.50879,0,25,89
0.035353,0,26,89
0.50075,0,27,89
0.31964,0,28,89
-0.076997,0,29,89
-0.39279,0,30,89
-0.38223,0,31,89
-0.30228,0,32,89
-0.09298,0,33,89
0.14784,0,34,89
0.78553,0,35,89
0.60907,0,36,89
0.24024,0,37,89
-0.12999,0,38,89
-0.30992,0,39,89
-0.075786,0,40,89
-0.075785,0,41,89
-0.10949,0,42,89
-0.23244,0,43,89
-0.14322,0,44,89
0.28037,0,45,89
0.29383,0,46,89
0.13152,0,47,89
0.087285,0,48,89
0.31271,0,49,89
-0.038406,0,50,89
-0.391,0,51,89
-0.24922,0,52,89
-0.41995,0,53,89
-0.57557,0,54,89
-0.48446,0,55,89
-0.12346,0,56,89
-0.059845,0,57,89
0.15379,0,58,89
0.84104,0,59,89
1.7553,0,60,89
0.95739,0,61,89
-0.96271,0,62,89
-1.438,0,63,89
-1.4049,0,64,89
-0.58262,0,65,89
0.1944,0,66,89
0.57765,0,67,89
0.60547,0,68,89
0.2163,0,69,89
0.15651,0,70,89
0.73353,0,71,89
0.68502,0,72,89
0.08074,0,73,89
-0.46276,0,74,89
-0.70854,0,75,89
-0.24878,0,76,89
0.18318,0,77,89
0.18799,0,78,89
0.082581,0,79,89
-0.13563,0,80,89
-0.28467,0,81,89
0.063309,0,82,89
0.3085,0,83,89
0.33153,0,84,89
0.13453,0,85,89
0.017078,0,86,89
-0.10369,0,87,89
0.80529,0,88,89
1.2247,0,89,89
0.55557,0,90,89
-0.21611,0,91,89
-0.9844,0,92,89
-1.1421,0,93,89
-0.041546,0,94,89
0.6059,0,95,89
0.54037,0,96,89
-0.59643,0,97,89
-1.0541,0,98,89
-1.1348,0,99,89
-0.40879,0,100,89
0.15408,0,101,89
0.50511,0,102,89
0.51376,0,103,89
0.083915,0,104,89
-0.21635,0,105,89
-0.17888,0,106,89
-0.18542,0,107,89
-0.20793,0,108,89
-0.098448,0,109,89
-0.1201,0,110,89
0.25491,0,111,89
0.59529,0,112,89
0.56075,0,113,89
0.53502,0,114,89
0.13306,0,115,89
-0.32769,0,116,89
-0.48677,0,117,89
-0.42525,0,118,89
-0.18468,0,119,89
-0.11644,0,120,89
-0.073667,0,121,89
0.026679,0,122,89
0.21896,0,123,89
0.35958,0,124,89
0.39306,0,125,89
0.41493,0,126,89
0.4589,0,127,89
0.20695,0,128,89
0.11852,0,129,89
1.0704,0,130,89
0.55838,0,131,89
0.11699,0,132,89
-0.45171,0,133,89
-1.291,0,134,89
-1.2604,0,135,89
-0.94218,0,136,89
-0.47243,0,137,89
-0.13388,0,138,89
-0.13328,0,139,89
-0.16593,0,140,89
-0.19358,0,141,89
-0.26841,0,142,89
-0.19329,0,143,89
0.04022,0,144,89
0.29192,0,145,89
0.51869,0,146,89
1.1699,0,147,89
1.4788,0,148,89
0.74071,0,149,89
-0.16853,0,150,89
-0.1433,0,151,89
-0.049205,0,152,89
0.19532,0,153,89
-0.090905,0,154,89
-0.4231,0,155,89
-0.8318,0,156,89
-0.96473,0,157,89
-0.75639,0,158,89
-0.46899,0,159,89
-0.22076,0,160,89
-0.040135,0,161,89
0.12865,0,162,89
0.28746,0,163,89
0.70749,0,164,89
0.78724,0,165,89
0.67064,0,166,89
0.3311,0,167,89
-0.073522,0,168,89
0.09117,0,169,89
0.39226,0,170,89
0.22153,0,171,89
0.014355,0,172,89
-0.13427,0,173,89
-0.26116,0,174,89
-0.30806,0,175,89
-0.1802,0,176,89
-0.099289,0,177,89
0.04102,0,178,89
0.17175,0,179,89
-0.1847,0,180,89
-0.39507,0,181,89
-0.51314,0,182,89
-0.55529,0,183,89
-0.47714,0,184,89
-0.24094,0,185,89
0.03406,0,186,89
0.36757,0,187,89
0.57391,0,188,89
0.56527,0,189,89
0.41186,0,190,89
0.10103,0,191,89
-0.1424,0,192,89
-0.012632,0,193,89
0.031175,0,194,89
0.22281,0,195,89
0.43732,0,196,89
0.33394,0,197,89
-0.035624,0,198,89
-0.38752,0,199,89
-0.54588,0,200,89
-0.48653,0,201,89
0.23841,0,202,89
0.80344,0,203,89
0.677,0,204,89
0.19559,0,205,89
0.18241,0,206,89
-0.15904,0,207,89
-0.41146,0,208,89
-0.82097,0,209,89
-1.1882,0,210,89
-1.2177,0,211,89
-0.80822,0,212,89
-0.16477,0,213,89
0.32248,0,214,89
0.46737,0,215,89
0.1597,0,216,89
-0.18024,0,217,89
-0.35179,0,218,89
-0.1506,0,219,89
0.20806,0,220,89
0.77079,0,221,89
1.0542,0,222,89
1.1312,0,223,89
0.737,0,224,89
0.06512,0,225,89
-0.39474,0,226,89
-0.61615,0,227,89
-0.2152,0,228,89
0.22682,0,229,89
0.69778,0,230,89
0.69126,0,231,89
0.34973,0,232,89
-0.13946,0,233,89
-0.35151,0,234,89
-0.61522,0,235,89
-0.75526,0,236,89
-0.50778,0,237,89
-0.31531,0,238,89
-0.083546,0,239,89
0.56729,0,240,89
0.87888,0,241,89
0.80495,0,242,89
0.47265,0,243,89
0.15133,0,244,89
-0.2896,0,245,89
-0.85332,0,246,89
-0.6643,0,247,89
-0.1587,0,248,89
0.12029,0,249,89
-0.14442,0,250,89
-0.48346,0,251,89
-0.79965,0,252,89
-1.1078,0,253,89
-1.0633,0,254,89
-0.67596,0,255,89
0.25745,0,0,89
0.72289,0,1,89
0.87184,0,2,89
0.73499,0,3,89
0.46496,0,4,89
0.40898,0,5,89
0.42934,0,6,89
0.47519,0,7,89
0.5726,0,8,89
0.54981,0,9,89
0.47677,0,10,89
0.1504,0,11,89
-0.23149,0,12,89
-0.36874,0,13,89
-0.45535,0,14,89
-0.5205,0,15,89
-0.31418,0,16,89
0.15056,0,17,89
0.43988,0,18,89
0.55078,0,19,89
0.39308,0,20,89
0.069588,0,21,89
-0.29296,0,22,89
-0.54521,0,23,89
-0.60274,0,24,89
-0.45953,0,25,89
-0.39917,0,26,89
-0.158,0,27,89
0.026942,0,28,89
0.12162,0,29,89
0.2153,0,30,89
0.24844,0,31,89
0.24736,0,32,89
0.19378,0,33,89
0.10098,0,34,89
-0.047997,0,35,89
-0.093984,0,36,89
-0.10078,0,37,89
-0.025389,0,38,89
0.22723,0,39,89
0.4182,0,40,89
0.32313,0,41,89
0.12092,0,42,89
-0.035465,0,43,89
-0.10319,0,44,89
-0.1464,0,45,89
-0.15957,0,46,89
-0.15764,0,47,89
-0.10972,0,48,89
-0.096974,0,49,89
-0.040284,0,50,89
0.045866,0,51,89
0.04143,0,52,89
-0.053585,0,53,89
-0.30471,0,54,89
-0.51109,0,55,89
-0.55005,0,56,89
-0.56665,0,57,89
-0.46412,0,58,89
-0.30268,0,59,89
-0.22823,0,60,89
-0.15794,0,61,89
-0.033176,0,62,89
0.03345,0,63,89
0.016822,0,64,89
-0.012716,0,65,89
0.028238,0,66,89
0.045538,0,67,89
0.056173,0,68,89
0.11597,0,69,89
0.10311,0,70,89
0.052922,0,71,89
0.03518,0,72,89
0.033543,0,73,89
0.090896,0,74,89
0.13226,0,75,89
0.11115,0,76,89
0.092321,0,77,89
0.11973,0,78,89
0.12823,0,79,89
0.1241,0,80,89
0.17524,0,81,89
0.12606,0,82,89
0.1705,0,83,89
0.14538,0,84,89
0.12466,0,85,89
0.13708,0,86,89
0.12321,0,87,89
0.1404,0,88,89
0.15434,0,89,89
0.12888,0,90,89
0.1086,0,91,89
0.15552,0,92,89
0.18986,0,93,89
0.18047,0,94,89
0.16196,0,95,89
0.12399,0,96,89
0.20077,0,97,89
0.14548,0,98,89
0.083428,0,99,89
0.03375,0,100,89
0.010245,0,101,89
0.029238,0,102,89
0.033669,0,103,89
0.014395,0,104,89
0.054752,0,105,89
0.072512,0,106,89
0.029888,0,107,89
-0.039439,0,108,89
-0.025379,0,109,89
-0.010868,0,110,89
-0.0535,0,111,89
-0.091282,0,112,89
-0.08444,0,113,89
-0.10272,0,114,89
-0.098156,0,115,89
-0.06103,0,116,89
-0.16688,0,117,89
-0.19978,0,118,89
-0.20602,0,119,89
-0.17108,0,120,89
-0.13008,0,121,89
-0.10121,0,122,89
-0.084014,0,123,89
-0.027858,0,124,89
-0.014321,0,125,89
0.03562,0,126,89
0.056659,0,127,89
0.021667,0,128,89
0.014358,0,129,89
0.045276,0,130,89
0.065381,0,131,89
0.078043,0,132,89
0.099402,0,133,89
0.043238,0,134,89
0.03869,0,135,89
0.047558,0,136,89
0.042942,0,137,89
0.014731,0,138,89
-0.027953,0,139,89
-0.080181,0,140,89
-0.073781,0,141,89
-0.01518,0,142,89
-0.040473,0,143,89
-0.07098,0,144,89
-0.10461,0,145,89
-0.11427,0,146,89
-0.044414,0,147,89
-0.080094,0,148,89
-0.049959,0,149,89
-0.040772,0,150,89
-0.060194,0,151,89
-0.0993,0,152,89
-0.13315,0,153,89
-0.13297,0,154,89
-0.1146,0,155,89
-0.055297,0,156,89
-0.10159,0,157,89
-0.090875,0,158,89
-0.071577,0,159,89
-0.042354,0,160,89
-0.038836,0,161,89
-0.065701,0,162,89
-0.044211,0,163,89
-0.074801,0,164,89
-0.051638,0,165,89
0.056441,0,166,89
0.012465,0,167,89
-0.071247,0,168,89
-0.051589,0,169,89
-0.043747,0,170,89
-0.03118,0,171,89
-0.063686,0,172,89
-0.055115,0,173,89
-0.041258,0,174,89
0.040397,0,175,89
0.04592,0,176,89
-0.018179,0,177,89
-0.022866,0,178,89
0.019141,0,179,89
0.054002,0,180,89
0.055788,0,181,89
0.05183,0,182,89
0.087432,0,183,89
0.10646,0,184,89
0.12067,0,185,89
0.13506,0,186,89
0.081505,0,187,89
0.069254,0,188,89
0.068257,0,189,89
0.056066,0,190,89
0.030139,0,191,89
0.010478,0,192,89
0.012949,0,193,89
0.045321,0,194,89
0.10159,0,195,89
0.063636,0,196,89
0.057201,0,197,89
0.069578,0,198,89
0.068842,0,199,89
0.094812,0,200,89
0.064262,0,201,89
0.11002,0,202,89
0.13497,0,203,89
0.082093,0,204,89
0.055286,0,205,89
0.025423,0,206,89
0.039011,0,207,89
0.048837,0,208,89
0.060518,0,209,89
0.045046,0,210,89
0.055028,0,211,89
0.074877,0,212,89
0.10217,0,213,89
0.079781,0,214,89
0.033563,0,215,89
0.04302,0,216,89
0.081648,0,217,89
0.018815,0,218,89
-0.054715,0,219,89
-0.073218,0,220,89
-0.092946,0,221,89
-0.097177,0,222,89
-0.025735,0,223,89
-0.037838,0,224,89
-0.030196,0,225,89
0.014335,0,226,89
0.064689,0,227,89
0.15295,0,228,89
0.28361,0,229,89
0.2739,0,230,89
0.18182,0,231,89
-0.20095,0,232,89
-0.3382,0,233,89
-0.44828,0,234,89
-0.47291,0,235,89
-0.4679,0,236,89
-0.40015,0,237,89
-0.27377,0,238,89
-0.050488,0,239,89
0.16607,0,240,89
0.28049,0,241,89
0.40857,0,242,89
0.43169,0,243,89
0.25565,0,244,89
0.081254,0,245,89
0.024519,0,246,89
-0.1497,0,247,89
-0.26539,0,248,89
-0.24377,0,249,89
-0.19691,0,250,89
-0.10902,0,251,89
-0.15031,0,252,89
0.089078,0,253,89
0.064949,0,254,89
-0.097669,0,255,89
-0.43729,0,0,89
-0.58927,0,1,89
-0.637,0,2,89
-0.63395,0,3,89
-0.4874,0,4,89
-0.18149,0,5,89
0.22304,0,6,89
0.54722,0,7,89
0.85334,0,8,89
1.0435,0,9,89
0.94828,0,10,89
0.60075,0,11,89
0.11268,0,12,89
-0.2697,0,13,89
-0.24856,0,14,89
-0.083419,0,15,89
0.032558,0,16,89
-0.040312,0,17,89
-0.075866,0,18,89
-0.19388,0,19,89
-0.23466,0,20,89
-0.012538,0,21,89
0.29907,0,22,89
0.50832,0,23,89
0.59297,0,24,89
0.079384,0,25,89
-0.33962,0,26,89
-0.57175,0,27,89
-0.61617,0,28,89
-0.52406,0,29,89
-0.26631,0,30,89
0.011392,0,31,89
0.25179,0,32,89
0.20284,0,33,89
-0.025833,0,34,89
-0.17587,0,35,89
-0.16586,0,36,89
-0.026805,0,37,89
0.33085,0,38,89
0.73631,0,39,89
0.99955,0,40,89
0.67077,0,41,89
0.058096,0,42,89
-0.33705,0,43,89
-0.53355,0,44,89
-0.34703,0,45,89
0.21738,0,46,89
0.40122,0,47,89
0.10986,0,48,89
-0.62807,0,49,89
-1.1561,0,50,89
-1.2141,0,51,89
-0.96289,0,52,89
-0.32148,0,53,89
0.19162,0,54,89
0.53615,0,55,89
0.95275,0,56,89
2.0523,0,57,89
2.1131,0,58,89
1.7721,0,59,89
0.74404,0,60,89
-0.4012,0,61,89
-1.4887,0,62,89
-2.4712,0,63,89
-2.5318,0,64,89
-1.967,0,65,89
-0.94078,0,66,89
-0.047358,0,67,89
0.41241,0,68,89
1.1924,0,69,89
2.238,0,70,89
2.039,0,71,89
0.73126,0,72,89
-0.5755,0,73,89
-1.589,0,74,89
-1.6528,0,75,89
-1.2059,0,76,89
0.090247,0,77,89
0.77627,0,78,89
0.84898,0,79,89
0.26896,0,80,89
-0.29045,0,81,89
-0.18872,0,82,89
0.22202,0,83,89
0.47669,0,84,89
0.2096,0,85,89
-0.01096,0,86,89
-0.13814,0,87,89
-0.23557,0,88,89
0.055504,0,89,89
-0.25511,0,90,89
0.022231,0,91,89
-0.3629,0,92,89
0.66076,0,93,89
1.6078,0,94,89
1.5397,0,95,89
-3.5604,0,96,89
-3.3568,0,97,89
-3.2259,0,98,89
-3.0602,0,99,89
-2.8273,0,100,89
-1.9105,0,101,89
-0.13779,0,102,89
1.2942,0,103,89
1.9437,0,104,89
2.1932,0,105,89
1.951,0,106,89
2.0173,0,107,89
1.9531,0,108,89
1.8576,0,109,89
2.8482,0,110,89
3.3896,0,111,89
3.2991,0,112,89
2.0659,0,113,89
0.098354,0,114,89
-0.81766,0,115,89
-1.1256,0,116,89
-0.40369,0,117,89
0.49594,0,118,89
1.3779,0,119,89
2.4511,0,120,89
3.285,0,121,89
3.202,0,122,89
2.4088,0,123,89
0.95671,0,124,89
-0.58729,0,125,89
-1.6268,0,126,89
-2.0776,0,127,89
-2.1399,0,128,89
-0.91206,0,129,89
-0.80066,0,130,89
-0.95212,0,131,89
-1.0412,0,132,89
-1.4258,0,133,89
-1.328,0,134,89
-1.3781,0,135,89
-1.3724,0,136,89
-0.79252,0,137,89
0.56413,0,138,89
1.423,0,139,89
1.004,0,140,89
0.89378,0,141,89
0.12764,0,142,89
-1.023,0,143,89
-2.7066,0,144,89
-3.7899,0,145,89
-3.3172,0,146,89
-2.1819,0,147,89
-0.37006,0,148,89
0.14737,0,149,89
-0.13272,0,150,89
-0.68354,0,151,89
-1.3174,0,152,89
-2.0405,0,153,89
-1.5265,0,154,89
-0.50141,0,155,89
0.083621,0,156,89
-0.30388,0,157,89
-1.342,0,158,89
-1.9787,0,159,89
-1.3394,0,160,89
-0.74641,0,161,89
-0.41518,0,162,89
-0.33146,0,163,89
-0.052395,0,164,89
-0.11688,0,165,89
0.5576,0,166,89
1.0867,0,167,89
1.6305,0,168,89
1.3834,0,169,89
-0.13782,0,170,89
-1.8116,0,171,89
-2.8873,0,172,89
-2.4782,0,173,89
-0.81448,0,174,89
1.1713,0,175,89
3.0969,0,176,89
3.6674,0,177,89
2.4821,0,178,89
0.68515,0,179,89
-0.17579,0,180,89
-0.02131,0,181,89
-0.01988,0,182,89
0.8232,0,183,89
2.0374,0,184,89
2.3208,0,185,89
1.6433,0,186,89
0.66656,0,187,89
0.014646,0,188,89
0.2269,0,189,89
0.52645,0,190,89
0.75313,0,191,89
0.81047,0,192,89
0.62709,0,193,89
1.3757,0,194,89
1.4414,0,195,89
1.1089,0,196,89
0.64239,0,197,89
0.16721,0,198,89
0.36997,0,199,89
1.2263,0,200,89
2.0044,0,201,89
2.8194,0,202,89
2.3731,0,203,89
1.5024,0,204,89
0.02891,0,205,89
-0.79178,0,206,89
-1.0946,0,207,89
-0.9756,0,208,89
-0.46902,0,209,89
-0.24858,0,210,89
0.37888,0,211,89
1.2931,0,212,89
1.2443,0,213,89
1.0264,0,214,89
0.19976,0,215,89
-0.92605,0,216,89
-1.5698,0,217,89
-1.4472,0,218,89
-0.058181,0,219,89
0.28632,0,220,89
-0.39238,0,221,89
-1.3803,0,222,89
-0.88712,0,223,89
-0.72816,0,224,89
-0.8969,0,225,89
-1.3454,0,226,89
-0.10002,0,227,89
0.21928,0,228,89
-0.13222,0,229,89
-1.2436,0,230,89
-1.2945,0,231,89
-0.27743,0,232,89
1.1295,0,233,89
1.7847,0,234,89
0.43204,0,235,89
-0.67823,0,236,89
-1.9386,0,237,89
-3.6217,0,238,89
-2.7096,0,239,89
0.37099,0,240,89
1.5271,0,241,89
1.2101,0,242,89
-0.039562,0,243,89
-1.6055,0,244,89
-0.49745,0,245,89
-0.26196,0,246,89
-0.85529,0,247,89
-1.025,0,248,89
-1.1765,0,249,89
-1.6113,0,250,89
-1.7163,0,251,89
0.29512,0,252,89
3.3644,0,253,89
3.2774,0,254,89
0.49689,0,255,89
-2.0402,0,0,89
-3.621,0,1,89
-3.5979,0,2,89
-2.2299,0,3,89
0.85081,0,4,89
1.6573,0,5,89
1.164,0,6,89
1.032,0,7,89
0.27274,0,8,89
-0.45704,0,9,89
-0.81831,0,10,89
-0.96595,0,11,89
-0.95392,0,12,89
-0.4558,0,13,89
0.72129,0,14,89
1.081,0,15,89
1.4523,0,16,89
1.1139,0,17,89
0.2057,0,18,89
-0.37621,0,19,89
-0.26824,0,20,89
2.8643,0,21,89
3.7015,0,22,89
1.9086,0,23,89
0.014888,0,24,89
-1.7402,0,25,89
-2.9166,0,26,89
-2.6381,0,27,89
-1.986,0,28,89
-0.52297,0,29,89
2.4713,0,30,89
3.4745,0,31,89
2.8326,0,32,89
2.0902,0,33,89
0.15306,0,34,89
-0.96358,0,35,89
-1.044,0,36,89
-0.60572,0,37,89
1.1326,0,38,89
0.88181,0,39,89
-0.351,0,40,89
-1.2967,0,41,89
-1.7571,0,42,89
-1.0719,0,43,89
1.0559,0,44,89
3.9593,0,45,89
1.5348,0,46,89
-1.2902,0,47,89
-3.3556,0,48,89
-3.9471,0,49,89
-1.8788,0,50,89
0.14053,0,51,89
0.84268,0,52,89
1.0315,0,53,89
1.0255,0,54,89
2.7712,0,55,89
2.4058,0,56,89
0.34307,0,57,89
-1.8015,0,58,89
-3.1268,0,59,89
-3.4337,0,60,89
-2.6936,0,61,89
0.17313,0,62,89
2.8336,0,63,89
3.1725,0,64,89
2.0978,0,65,89
1.036,0,66,89
-0.58995,0,67,89
-1.8408,0,68,89
-1.6153,0,69,89
-0.49283,0,70,89
-0.18779,0,71,89
0.58023,0,72,89
-0.038563,0,73,89
-0.36434,0,74,89
-0.58567,0,75,89
-0.41008,0,76,89
0.29255,0,77,89
-0.25638,0,78,89
0.81299,0,79,89
-0.46552,0,80,89
-0.85174,0,81,89
-1.5115,0,82,89
-1.6562,0,83,89
-1.5378,0,84,89
0.19017,0,85,89
2.3995,0,86,89
2.5535,0,87,89
0.93175,0,88,89
-0.68486,0,89,89
-1.9768,0,90,89
-2.0425,0,91,89
-1.2426,0,92,89
1.4605,0,93,89
2.4585,0,94,89
1.1626,0,95,89
0.26599,0,96,89
-0.66603,0,97,89
-1.8499,0,98,89
0.069887,0,99,89
0.42552,0,100,89
-0.17233,0,101,89
-0.73244,0,102,89
-0.15386,0,103,89
-0.28162,0,104,89
-0.23736,0,105,89
0.29889,0,106,89
1.0873,0,107,89
0.2712,0,108,89
0.14919,0,109,89
0.67024,0,110,89
-0.11521,0,111,89
-0.97763,0,112,89
-0.73152,0,113,89
-0.70962,0,114,89
-0.25982,0,115,89
0.68608,0,116,89
0.66086,0,117,89
0.18344,0,118,89
0.35179,0,119,89
0.27828,0,120,89
0.12227,0,121,89
1.68,0,122,89
2.3922,0,123,89
0.78726,0,124,89
-0.82283,0,125,89
-1.8231,0,126,89
-1.5433,0,127,89
-0.65657,0,128,89
0.8753,0,129,89
1.1833,0,130,89
-0.32405,0,131,89
-1.378,0,132,89
-1.5018,0,133,89
-0.96085,0,134,89
-0.092351,0,135,89
0.81673,0,136,89
1.3944,0,137,89
1.7206,0,138,89
0.68821,0,139,89
-0.42368,0,140,89
-0.60805,0,141,89
-0.2343,0,142,89
-0.012804,0,143,89
0.62276,0,144,89
0.036257,0,145,89
-0.70004,0,146,89
-1.3064,0,147,89
-1.109,0,148,89
0.59756,0,149,89
1.1592,0,150,89
0.95849,0,151,89
-0.040616,0,152,89
-0.57863,0,153,89
-0.4048,0,154,89
-0.16356,0,155,89
0.56395,0,156,89
0.87791,0,157,89
1.1911,0,158,89
0.61628,0,159,89
-0.33424,0,160,89
-1.1037,0,161,89
-1.0523,0,162,89
-1.1609,0,163,89
-0.78697,0,164,89
0.037716,0,165,89
0.014113,0,166,89
0.49748,0,167,89
0.71748,0,168,89
1.5071,0,169,89
1.1611,0,170,89
-0.48174,0,171,89
-1.4383,0,172,89
-1.77,0,173,89
-1.231,0,174,89
-0.33175,0,175,89
0.66091,0,176,89
1.1032,0,177,89
0.94746,0,178,89
1.3939,0,179,89
1.0484,0,180,89
0.14919,0,181,89
-0.80292,0,182,89
-1.1267,0,183,89
-0.67075,0,184,89
0.16613,0,185,89
0.31013,0,186,89
-0.020052,0,187,89
-0.33614,0,188,89
-0.17847,0,189,89
0.69995,0,190,89
1.0103,0,191,89
0.30177,0,192,89
-0.55285,0,193,89
-0.82076,0,194,89
-0.43601,0,195,89
-0.27401,0,196,89
0.13802,0,197,89
-0.010749,0,198,89
-0.25024,0,199,89
-0.27099,0,200,89
-0.050601,0,201,89
0.34851,0,202,89
0.33878,0,203,89
0.17943,0,204,89
0.050019,0,205,89
0.29186,0,206,89
0.038111,0,207,89
-0.31926,0,208,89
0.14477,0,209,89
0.06808,0,210,89
-0.17226,0,211,89
-0.23416,0,212,89
-0.17451,0,213,89
-0.17336,0,214,89
0.25434,0,215,89
0.31984,0,216,89
0.63592,0,217,89
0.22403,0,218,89
-0.22424,0,219,89
-0.5364,0,220,89
-0.88366,0,221,89
0.20451,0,222,89
0.40638,0,223,89
0.097541,0,224,89
-0.48321,0,225,89
-0.094361,0,226,89
0.56383,0,227,89
-0.06036,0,228,89
-0.76305,0,229,89
-1.3029,0,230,89
-0.05973,0,231,89
1.0738,0,232,89
0.73219,0,233,89
-0.016644,0,234,89
-0.38096,0,235,89
-0.017453,0,236,89
0.50376,0,237,89
1.5992,0,238,89
1.1038,0,239,89
-0.32653,0,240,89
-1.5513,0,241,89
-1.8193,0,242,89
-1.1853,0,243,89
0.12135,0,244,89
0.85041,0,245,89
0.75901,0,246,89
0.5645,0,247,89
0.70459,0,248,89
0.4918,0,249,89
-0.30713,0,250,89
-0.81077,0,251,89
-1.0036,0,252,89
-0.049329,0,253,89
0.82058,0,254,89
0.74703,0,255,89
0.17934,0,0,89
-0.64482,0,1,89
-0.66292,0,2,89
-0.71238,0,3,89
-0.41533,0,4,89
0.34591,0,5,89
0.25675,0,6,89
0.77124,0,7,89
0.83253,0,8,89
0.68137,0,9,89
-0.10229,0,10,89
-0.027439,0,11,89
0.52015,0,12,89
1.0799,0,13,89
0.34346,0,14,89
-0.33387,0,15,89
-1.2929,0,16,89
-1.2016,0,17,89
-1.1067,0,18,89
-0.026198,0,19,89
0.26466,0,20,89
0.33187,0,21,89
0.1395,0,22,89
-0.18592,0,23,89
0.14452,0,24,89
1.7643,0,25,89
1.7572,0,26,89
0.37931,0,27,89
-0.91121,0,28,89
-1.4568,0,29,89
-1.2075,0,30,89
-0.96505,0,31,89
-0.82483,0,32,89
0.31751,0,33,89
0.43078,0,34,89
-0.17262,0,35,89
-0.59273,0,36,89
0.11926,0,37,89
1.4623,0,38,89
1.8393,0,39,89
0.90513,0,40,89
-0.41429,0,41,89
-0.86931,0,42,89
-0.8938,0,43,89
-0.50899,0,44,89
-0.68883,0,45,89
0.086082,0,46,89
0.37162,0,47,89
0.20612,0,48,89
0.2965,0,49,89
0.29484,0,50,89
0.3164,0,51,89
0.059954,0,52,89
-0.16492,0,53,89
-0.15463,0,54,89
-0.44743,0,55,89
-0.36354,0,56,89
0.090958,0,57,89
-0.25836,0,58,89
-0.4866,0,59,89
-0.66458,0,60,89
-0.23312,0,61,89
0.32467,0,62,89
0.28572,0,63,89
0.2808,0,64,89
0.12854,0,65,89
0.24747,0,66,89
0.51266,0,67,89
-0.088091,0,68,89
-0.68913,0,69,89
-1.1775,0,70,89
-0.54556,0,71,89
0.98588,0,72,89
1.4263,0,73,89
0.58759,0,74,89
-0.62618,0,75,89
-0.99994,0,76,89
-0.56061,0,77,89
0.2649,0,78,89
0.79803,0,79,89
1.4098,0,80,89
0.70322,0,81,89
-0.91075,0,82,89
-0.87808,0,83,89
-0.23613,0,84,89
0.16029,0,85,89
0.25474,0,86,89
0.65237,0,87,89
1.1731,0,88,89
1.0374,0,89,89
-0.02107,0,90,89
-1.0771,0,91,89
-1.2387,0,92,89
-0.69137,0,93,89
0.099756,0,94,89
0.96684,0,95,89
1.1842,0,96,89
0.31534,0,97,89
-1.0954,0,98,89
-1.4899,0,99,89
-0.7712,0,100,89
0.094224,0,101,89
0.37691,0,102,89
1.2304,0,103,89
1.3193,0,104,89
0.3923,0,105,89
-0.86482,0,106,89
-1.2739,0,107,89
-0.99679,0,108,89
0.46862,0,109,89
0.48548,0,110,89
0.28676,0,111,89
-0.24129,0,112,89
-0.92027,0,113,89
-0.61905,0,114,89
0.32038,0,115,89
1.0227,0,116,89
0.84146,0,117,89
0.14461,0,118,89
-0.24753,0,119,89
-0.20059,0,120,89
0.40533,0,121,89
0.38458,0,122,89
-0.030606,0,123,89
-0.3304,0,124,89
-0.39848,0,125,89
-0.1785,0,126,89
-0.21077,0,127,89
-0.35064,0,128,89
-0.49765,0,129,89
-0.13071,0,130,89
0.18265,0,131,89
0.25987,0,132,89
0.96764,0,133,89
0.68664,0,134,89
-0.21514,0,135,89
-0.17683,0,136,89
-0.22211,0,137,89
-0.44284,0,138,89
-0.87657,0,139,89
-0.45202,0,140,89
0.25268,0,141,89
1.0588,0,142,89
0.77937,0,143,89
0.20212,0,144,89
-0.28382,0,145,89
-0.19466,0,146,89
0.073644,0,147,89
0.37531,0,148,89
0.17075,0,149,89
-0.23002,0,150,89
-0.89925,0,151,89
-1.0498,0,152,89
-0.68127,0,153,89
-0.40439,0,154,89
-0.092313,0,155,89
0.77314,0,156,89
1.7814,0,157,89
0.77327,0,158,89
-0.59102,0,159,89
-1.1423,0,160,89
-0.54612,0,161,89
0.50173,0,162,89
0.69764,0,163,89
0.04913,0,164,89
-1.0489,0,165,89
-1.114,0,166,89
-0.021542,0,167,89
0.42381,0,168,89
0.25016,0,169,89
0.42813,0,170,89
0.72188,0,171,89
0.73655,0,172,89
0.14368,0,173,89
-0.26144,0,174,89
0.51227,0,175,89
0.038789,0,176,89
-1.0061,0,177,89
-1.7995,0,178,89
-1.3524,0,179,89
-0.19615,0,180,89
1.0944,0,181,89
1.294,0,182,89
0.71072,0,183,89
0.22717,0,184,89
0.12971,0,185,89
-0.20818,0,186,89
-0.1141,0,187,89
0.52524,0,188,89
0.58155,0,189,89
0.26391,0,190,89
0.097393,0,191,89
-0.69539,0,192,89
-0.78586,0,193,89
-0.69966,0,194,89
0.55568,0,195,89
0.9235,0,196,89
0.60683,0,197,89
-0.15347,0,198,89
-0.33618,0,199,89
-0.41529,0,200,89
-0.074596,0,201,89
0.1847,0,202,89
0.41519,0,203,89
0.53217,0,204,89
0.364,0,205,89
-0.25208,0,206,89
-0.60275,0,207,89
-0.4173,0,208,89
-0.17406,0,209,89
-0.10778,0,210,89
-0.058802,0,211,89
0.094925,0,212,89
0.15282,0,213,89
0.37507,0,214,89
0.22185,0,215,89
-0.21567,0,216,89
-0.73901,0,217,89
-0.5433,0,218,89
0.034108,0,219,89
0.50676,0,220,89
0.40183,0,221,89
0.1452,0,222,89
-0.16354,0,223,89
0.10885,0,224,89
0.2483,0,225,89
-0.1473,0,226,89
-0.039247,0,227,89
-0.27649,0,228,89
-0.33832,0,229,89
-0.32105,0,230,89
-0.037764,0,231,89
0.033081,0,232,89
0.18677,0,233,89
0.39524,0,234,89
0.35994,0,235,89
0.28323,0,236,89
0.51105,0,237,89
-0.029333,0,238,89
-0.75195,0,239,89
-1.2007,0,240,89
-0.25765,0,241,89
0.32226,0,242,89
0.39239,0,243,89
0.21823,0,244,89
0.13899,0,245,89
0.1799,0,246,89
0.13536,0,247,89
-0.041169,0,248,89
-0.042924,0,249,89
-0.10347,0,250,89
0.075766,0,251,89
-0.26115,0,252,89
-0.83712,0,253,89
-0.7426,0,254,89
-0.31526,0,255,89
0.14423,0,0,89
0.35655,0,1,89
0.3914,0,2,89
0.39607,0,3,89
0.31513,0,4,89
0.19425,0,5,89
-0.021011,0,6,89
0.21579,0,7,89
-0.17341,0,8,89
-0.65147,0,9,89
-0.61819,0,10,89
-0.081293,0,11,89
0.44816,0,12,89
0.53309,0,13,89
0.48289,0,14,89
0.15387,0,15,89
0.042792,0,16,89
0.14025,0,17,89
-0.060875,0,18,89
-0.29451,0,19,89
-0.36326,0,20,89
-0.225,0,21,89
0.080821,0,22,89
0.18009,0,23,89
0.043669,0,24,89
-0.26193,0,25,89
0.030347,0,26,89
0.38117,0,27,89
0.53994,0,28,89
0.33822,0,29,89
0.036607,0,30,89
-0.16753,0,31,89
-0.216,0,32,89
-0.31767,0,33,89
-0.28031,0,34,89
-0.029211,0,35,89
0.045557,0,36,89
0.2647,0,37,89
0.049661,0,38,89
-0.063271,0,39,89
-0.17437,0,40,89
-0.10565,0,41,89
0.19081,0,42,89
0.31473,0,43,89
0.27186,0,44,89
-0.058029,0,45,89
-0.37105,0,46,89
-0.343,0,47,89
-0.20798,0,48,89
-0.11086,0,49,89
0.2755,0,50,89
0.40709,0,51,89
0.15475,0,52,89
-0.066479,0,53,89
0.32328,0,54,89
0.41364,0,55,89
0.13586,0,56,89
-0.15471,0,57,89
-0.23057,0,58,89
0.09174,0,59,89
0.17422,0,60,89
-0.085963,0,61,89
-0.51577,0,62,89
-0.89654,0,63,89
-0.64393,0,64,89
-0.25335,0,65,89
-0.2813,0,66,89
0.26549,0,67,89
0.50544,0,68,89
0.24702,0,69,89
0.12115,0,70,89
0.16893,0,71,89
0.11731,0,72,89
0.052096,0,73,89
0.20809,0,74,89
0.3903,0,75,89
0.19379,0,76,89
0.066497,0,77,89
-0.10848,0,78,89
-0.24832,0,79,89
-0.16176,0,80,89
-0.34315,0,81,89
-0.31697,0,82,89
-0.025719,0,83,89
0.22925,0,84,89
0.21742,0,85,89
0.071983,0,86,89
0.15688,0,87,89
0.26616,0,88,89
0.57229,0,89,89
0.39801,0,90,89
-0.38154,0,91,89
-0.83154,0,92,89
-0.64335,0,93,89
-0.23125,0,94,89
-0.10756,0,95,89
0.38769,0,96,89
0.072618,0,97,89
-0.25971,0,98,89
-0.32592,0,99,89
0.25029,0,100,89
0.25796,0,101,89
0.024208,0,102,89
-0.15454,0,103,89
0.28764,0,104,89
0.56094,0,105,89
-0.2604,0,106,89
-0.82832,0,107,89
-0.69913,0,108,89
-0.075335,0,109,89
0.66087,0,110,89
0.42722,0,111,89
-0.17619,0,112,89
-0.3122,0,113,89
-0.025365,0,114,89
0.23874,0,115,89
0.65877,0,116,89
0.82894,0,117,89
0.42679,0,118,89
0.11678,0,119,89
-0.10419,0,120,89
-0.36316,0,121,89
-0.52503,0,122,89
-0.50132,0,123,89
-0.29681,0,124,89
-0.051583,0,125,89
0.38175,0,126,89
0.70199,0,127,89
0.63299,0,128,89
-0.010801,0,129,89
-0.55138,0,130,89
-0.4949,0,131,89
-0.26047,0,132,89
0.087491,0,133,89
0.19,0,134,89
0.20753,0,135,89
-0.12232,0,136,89
-0.31678,0,137,89
-0.16661,0,138,89
0.030213,0,139,89
0.13332,0,140,89
0.1874,0,141,89
0.14847,0,142,89
-0.059478,0,143,89
-0.01336,0,144,89
-0.032597,0,145,89
-0.19746,0,146,89
-0.11438,0,147,89
0.029483,0,148,89
0.09648,0,149,89
0.21184,0,150,89
0.21313,0,151,89
-0.13446,0,152,89
-0.20559,0,153,89
-0.14689,0,154,89
-0.26356,0,155,89
-0.37082,0,156,89
-0.30655,0,157,89
0.3201,0,158,89
0.20567,0,159,89
-0.3311,0,160,89
-0.5233,0,161,89
0.11457,0,162,89
0.46052,0,163,89
0.82181,0,164,89
0.93241,0,165,89
0.445,0,166,89
0.045374,0,167,89
-0.39306,0,168,89
-0.48948,0,169,89
-0.26225,0,170,89
-0.067691,0,171,89
-0.14676,0,172,89
-0.31565,0,173,89
-0.045658,0,174,89
0.52539,0,175,89
0.72009,0,176,89
0.16882,0,177,89
-0.51232,0,178,89
-0.97225,0,179,89
-0.5589,0,180,89
0.10706,0,181,89
0.39458,0,182,89
0.39649,0,183,89
0.37696,0,184,89
0.33796,0,185,89
0.3388,0,186,89
0.34506,0,187,89
-0.11189,0,188,89
-0.45035,0,189,89
-0.63463,0,190,89
-0.41147,0,191,89
-0.21614,0,192,89
-0.24572,0,193,89
-0.21203,0,194,89
-0.14413,0,195,89
-0.07625,0,196,89
0.25318,0,197,89
0.35872,0,198,89
0.20607,0,199,89
0.041852,0,200,89
-0.12937,0,201,89
0.16931,0,202,89
0.11969,0,203,89
0.13029,0,204,89
0.051819,0,205,89
-0.13767,0,206,89
0.2378,0,207,89
0.29542,0,208,89
-0.15658,0,209,89
-0.25245,0,210,89
-0.41318,0,211,89
-0.33812,0,212,89
-0.22303,0,213,89
0.35193,0,214,89
0.53223,0,215,89
0.39883,0,216,89
-0.29652,0,217,89
-0.29039,0,218,89
-0.23233,0,219,89
0.032749,0,220,89
0.31163,0,221,89
0.27264,0,222,89
-0.19389,0,223,89
-0.66273,0,224,89
-0.73805,0,225,89
-0.2639,0,226,89
0.14573,0,227,89
0.42447,0,228,89
0.61591,0,229,89
0.38934,0,230,89
0.1274,0,231,89
0.024709,0,232,89
-0.079574,0,233,89
-0.015507,0,234,89
0.11753,0,235,89
0.064426,0,236,89
-0.02226,0,237,89
0.057468,0,238,89
-0.028042,0,239,89
0.11728,0,240,89
0.20593,0,241,89
0.072263,0,242,89
0.048949,0,243,89
-0.16431,0,244,89
-0.12587,0,245,89
-0.17304,0,246,89
-0.1826,0,247,89
0.020849,0,248,89
0.15948,0,249,89
0.15675,0,250,89
0.38306,0,251,89
0.30624,0,252,89
0.012641,0,253,89
-0.14405,0,254,89
0.054033,0,255,89
0.15477,0,0,89
-0.035406,0,1,89
-0.30024,0,2,89
-0.35235,0,3,89
-0.37035,0,4,89
-0.2556,0,5,89
-0.014882,0,6,89
0.12214,0,7,89
0.16812,0,8,89
0.15931,0,9,89
0.13469,0,10,89
-0.11455,0,11,89
-0.33018,0,12,89
-0.31482,0,13,89
-0.12724,0,14,89
0.14381,0,15,89
0.1039,0,16,89
0.070612,0,17,89
0.029592,0,18,89
-0.099434,0,19,89
0.25476,0,20,89
0.50691,0,21,89
0.22813,0,22,89
-0.17335,0,23,89
-0.58199,0,24,89
-0.55892,0,25,89
-0.21733,0,26,89
0.14998,0,27,89
0.22671,0,28,89
0.1556,0,29,89
0.1933,0,30,89
0.26014,0,31,89
0.13909,0,32,89
-0.12397,0,33,89
-0.040137,0,34,89
-0.17466,0,35,89
-0.064683,0,36,89
-0.061523,0,37,89
-0.25313,0,38,89
-0.27472,0,39,89
0.02288,0,40,89
0.11176,0,41,89
0.024368,0,42,89
-0.013229,0,43,89
0.082789,0,44,89
0.16296,0,45,89
0.18224,0,46,89
0.011048,0,47,89
0.026695,0,48,89
0.040022,0,49,89
-0.037233,0,50,89
-0.10079,0,51,89
0.057628,0,52,89
0.15391,0,53,89
0.22771,0,54,89
0.31237,0,55,89
0.2939,0,56,89
0.19743,0,57,89
0.030196,0,58,89
-0.05068,0,59,89
-0.062417,0,60,89
-0.16071,0,61,89
-0.14749,0,62,89
-0.082897,0,63,89
-0.077104,0,64,89
-0.018905,0,65,89
0.097745,0,66,89
-0.022274,0,67,89
0.10367,0,68,89
-0.24564,0,69,89
-0.63011,0,70,89
-0.58253,0,71,89
-0.051575,0,72,89
0.077837,0,73,89
0.010823,0,74,89
-0.066278,0,75,89
-0.13414,0,76,89
-0.097937,0,77,89
0.070796,0,78,89
0.38813,0,79,89
0.24035,0,80,89
0.08569,0,81,89
0.15287,0,82,89
0.056462,0,83,89
0.086742,0,84,89
0.18157,0,85,89
0.24947,0,86,89
-0.18364,0,87,89
-0.27876,0,88,89
-0.28042,0,89,89
-0.019737,0,90,89
0.70439,0,91,89
1.0139,0,92,89
0.33274,0,93,89
-0.17287,0,94,89
-0.68072,0,95,89
-0.75467,0,96,89
-0.24004,0,97,89
0.50145,0,98,89
0.3438,0,99,89
-0.17356,0,100,89
-0.33668,0,101,89
-0.51176,0,102,89
-0.61319,0,103,89
-0.22337,0,104,89
-0.10276,0,105,89
0.015879,0,106,89
-0.026859,0,107,89
0.062044,0,108,89
0.21409,0,109,89
0.32037,0,110,89
0.24915,0,111,89
0.2875,0,112,89
0.62179,0,113,89
0.63073,0,114,89
0.098607,0,115,89
-0.26503,0,116,89
-0.58066,0,117,89
-0.48814,0,118,89
-0.016124,0,119,89
0.081977,0,120,89
0.081325,0,121,89
-0.146,0,122,89
-0.3113,0,123,89
-0.13099,0,124,89
0.18405,0,125,89
0.59862,0,126,89
0.43334,0,127,89
0.149,0,128,89
-0.21492,0,129,89
-0.42478,0,130,89
-0.32587,0,131,89
0.16725,0,132,89
0.44118,0,133,89
0.99709,0,134,89
0.39651,0,135,89
-0.43921,0,136,89
-0.6736,0,137,89
-0.65509,0,138,89
-0.55357,0,139,89
-0.49604,0,140,89
-0.28414,0,141,89
0.14114,0,142,89
0.13165,0,143,89
0.13641,0,144,89
0.14451,0,145,89
0.22495,0,146,89
0.50477,0,147,89
0.4529,0,148,89
0.053105,0,149,89
-0.35783,0,150,89
-0.54855,0,151,89
-0.47865,0,152,89
-0.3296,0,153,89
-0.050932,0,154,89
0.3467,0,155,89
0.29419,0,156,89
0.32156,0,157,89
0.17958,0,158,89
0.70612,0,159,89
0.64618,0,160,89
0.29682,0,161,89
-0.23778,0,162,89
-0.55262,0,163,89
-0.76042,0,164,89
-0.54435,0,165,89
-0.21912,0,166,89
-0.058068,0,167,89
0.18757,0,168,89
0.21052,0,169,89
0.29601,0,170,89
0.21109,0,171,89
0.31286,0,172,89
0.24286,0,173,89
-0.021631,0,174,89
-0.19467,0,175,89
-0.25431,0,176,89
-0.16752,0,177,89
0.035416,0,178,89
0.38225,0,179,89
0.31079,0,180,89
0.20703,0,181,89
0.39976,0,182,89
-0.030569,0,183,89
-0.61333,0,184,89
-0.83428,0,185,89
-0.83999,0,186,89
-0.66288,0,187,89
-0.36978,0,188,89
-0.017369,0,189,89
0.26147,0,190,89
0.46469,0,191,89
0.7598,0,192,89
0.80958,0,193,89
0.54071,0,194,89
0.26027,0,195,89
-0.12953,0,196,89
-0.43356,0,197,89
-0.56284,0,198,89
-0.32535,0,199,89
0.023748,0,200,89
0.23134,0,201,89
0.24048,0,202,89
0.34779,0,203,89
0.26933,0,204,89
0.19389,0,205,89
0.38384,0,206,89
0.11597,0,207,89
-0.021538,0,208,89
-0.28,0,209,89
-0.51648,0,210,89
-0.55813,0,211,89
-0.4009,0,212,89
-0.28178,0,213,89
-0.16784,0,214,89
-0.04992,0,215,89
0.12543,0,216,89
0.3362,0,217,89
0.46737,0,218,89
0.33661,0,219,89
0.049409,0,220,89
-0.19223,0,221,89
0.19594,0,222,89
0.33465,0,223,89
0.044427,0,224,89
-0.36042,0,225,89
-0.46371,0,226,89
-0.56394,0,227,89
-0.62547,0,228,89
-0.36307,0,229,89
-0.011809,0,230,89
0.26507,0,231,89
0.25146,0,232,89
0.25083,0,233,89
0.36321,0,234,89
0.3199,0,235,89
0.054033,0,236,89
-0.057104,0,237,89
-0.14786,0,238,89
-0.091402,0,239,89
-0.012717,0,240,89
0.073795,0,241,89
0.6148,0,242,89
0.851,0,243,89
0.5013,0,244,89
0.013337,0,245,89
-0.42213,0,246,89
-0.65457,0,247,89
-0.52742,0,248,89
-0.256,0,249,89
-0.13298,0,250,89
-0.1314,0,251,89
0.13538,0,252,89
0.039289,0,253,89
-0.17799,0,254,89
-0.37628,0,255,89
-0.45901,0,0,89
-0.32783,0,1,89
-0.10133,0,2,89
0.19023,0,3,89
0.26447,0,4,89
0.21925,0,5,89
0.37936,0,6,89
0.99751,0,7,89
1.1981,0,8,89
0.6017,0,9,89
-0.068235,0,10,89
-0.6582,0,11,89
-0.96745,0,12,89
-1.0851,0,13,89
-1.0241,0,14,89
-0.5312,0,15,89
0.25571,0,16,89
1.0622,0,17,89
1.0518,0,18,89
0.95948,0,19,89
0.69287,0,20,89
-0.065521,0,21,89
-0.71561,0,22,89
-0.93118,0,23,89
-0.70085,0,24,89
-0.30374,0,25,89
-0.070849,0,26,89
0.065834,0,27,89
0.10704,0,28,89
0.63726,0,29,89
1.1219,0,30,89
0.90424,0,31,89
0.39764,0,32,89
-0.28674,0,33,89
-0.80501,0,34,89
-0.77288,0,35,89
-0.67995,0,36,89
-0.51296,0,37,89
-0.23777,0,38,89
0.33518,0,39,89
1.0357,0,40,89
1.3502,0,41,89
0.99071,0,42,89
0.2794,0,43,89
-0.64602,0,44,89
-1.4184,0,45,89
-1.6463,0,46,89
-1.3422,0,47,89
-0.49383,0,48,89
0.68084,0,49,89
1.0537,0,50,89
0.75462,0,51,89
0.22476,0,52,89
-0.26932,0,53,89
-0.45677,0,54,89
-0.5285,0,55,89
-0.38702,0,56,89
-0.10121,0,57,89
0.2856,0,58,89
0.74298,0,59,89
1.0044,0,60,89
0.7235,0,61,89
0.33764,0,62,89
0.14052,0,63,89
-0.017025,0,64,89
-0.27606,0,65,89
-0.51186,0,66,89
-0.60099,0,67,89
-0.47946,0,68,89
-0.10888,0,69,89
0.079848,0,70,89
0.056686,0,71,89
-0.065303,0,72,89
-0.22123,0,73,89
-0.12851,0,74,89
-0.16274,0,75,89
-0.072656,0,76,89
0.25083,0,77,89
0.40309,0,78,89
0.37709,0,79,89
0.33792,0,80,89
0.33932,0,81,89
0.17788,0,82,89
-0.14218,0,83,89
-0.52881,0,84,89
-0.73069,0,85,89
-0.71405,0,86,89
-0.48899,0,87,89
-0.050268,0,88,89
0.6757,0,89,89
0.98555,0,90,89
0.91959,0,91,89
0.96887,0,92,89
0.37741,0,93,89
-0.33423,0,94,89
-0.96666,0,95,89
-1.3089,0,96,89
-1.2123,0,97,89
-0.95014,0,98,89
-0.60709,0,99,89
-0.24037,0,100,89
0.15999,0,101,89
0.46767,0,102,89
0.55957,0,103,89
0.5223,0,104,89
0.53125,0,105,89
0.51089,0,106,89
0.50895,0,107,89
0.49544,0,108,89
0.48793,0,109,89
0.35004,0,110,89
0.16678,0,111,89
-0.018945,0,112,89
-0.21619,0,113,89
-0.36095,0,114,89
-0.3975,0,115,89
-0.13106,0,116,89
0.23398,0,117,89
0.76196,0,118,89
0.91641,0,119,89
0.52107,0,120,89
-0.16434,0,121,89
-0.79525,0,122,89
-1.0749,0,123,89
-1.0861,0,124,89
-0.81051,0,125,89
-0.43305,0,126,89
-0.18052,0,127,89
0.017643,0,128,89
0.14297,0,129,89
0.22117,0,130,89
0.31609,0,131,89
0.29411,0,132,89
0.33914,0,133,89
0.31041,0,134,89
0.206,0,135,89
0.18729,0,136,89
0.13249,0,137,89
0.12238,0,138,89
0.092396,0,139,89
0.094955,0,140,89
0.050738,0,141,89
0.030509,0,142,89
0.1286,0,143,89
0.21874,0,144,89
0.12159,0,145,89
-0.09405,0,146,89
-0.24278,0,147,89
-0.38986,0,148,89
-0.52284,0,149,89
-0.43018,0,150,89
-0.013397,0,151,89
0.39824,0,152,89
0.58405,0,153,89
0.47553,0,154,89
0.23699,0,155,89
-0.081387,0,156,89
-0.38452,0,157,89
-0.51429,0,158,89
-0.56877,0,159,89
-0.59313,0,160,89
-0.51447,0,161,89
-0.32392,0,162,89
0.013665,0,163,89
0.28556,0,164,89
0.40316,0,165,89
0.48757,0,166,89
0.49772,0,167,89
0.32829,0,168,89
0.024219,0,169,89
-0.22204,0,170,89
-0.35153,0,171,89
-0.41205,0,172,89
-0.34415,0,173,89
-0.20419,0,174,89
-0.044133,0,175,89
0.19579,0,176,89
0.38327,0,177,89
0.45953,0,178,89
0.44793,0,179,89
0.46244,0,180,89
0.53321,0,181,89
0.3661,0,182,89
0.16925,0,183,89
-0.22877,0,184,89
-0.50288,0,185,89
-0.59309,0,186,89
-0.54806,0,187,89
-0.35194,0,188,89
-0.22531,0,189,89
-0.042349,0,190,89
0.22724,0,191,89
0.51411,0,192,89
0.56641,0,193,89
0.43343,0,194,89
0.53033,0,195,89
0.084698,0,196,89
-0.269,0,197,89
-0.59285,0,198,89
-0.64012,0,199,89
-0.50153,0,200,89
-0.26576,0,201,89
-0.061409,0,202,89
0.087578,0,203,89
0.11215,0,204,89
0.11072,0,205,89
0.13349,0,206,89
0.20902,0,207,89
0.2284,0,208,89
0.16608,0,209,89
0.08029,0,210,89
-0.081478,0,211,89
-0.18733,0,212,89
-0.24071,0,213,89
-0.24363,0,214,89
-0.21683,0,215,89
-0.18976,0,216,89
-0.14013,0,217,89
-0.014194,0,218,89
0.027066,0,219,89
0.020522,0,220,89
0.050176,0,221,89
0.077712,0,222,89
0.11391,0,223,89
0.115,0,224,89
0.11996,0,225,89
0.077437,0,226,89
0.024396,0,227,89
0.012466,0,228,89
0.024194,0,229,89
0.088823,0,230,89
0.054866,0,231,89
0.069173,0,232,89
0.091192,0,233,89
0.074439,0,234,89
0.054361,0,235,89
0.039303,0,236,89
0.058492,0,237,89
0.14565,0,238,89
0.24999,0,239,89
0.24034,0,240,89
0.067262,0,241,89
-0.15842,0,242,89
-0.31003,0,243,89
-0.30119,0,244,89
-0.2892,0,245,89
-0.12401,0,246,89
0.019985,0,247,89
0.038479,0,248,89
0.033412,0,249,89
0.016611,0,250,89
0.035396,0,251,89
0.045673,0,252,89
0.094389,0,253,89
0.050533,0,254,89
0.025333,0,255,89
0.023635,0,0,89
0.037998,0,1,89
0.053084,0,2,89
0.035446,0,3,89
0.046313,0,4,89
0.050299,0,5,89
0.026003,0,6,89
-0.052267,0,7,89
-0.091878,0,8,89
-0.023202,0,9,89
-0.035624,0,10,89
-0.06748,0,11,89
-0.049565,0,12,89
-0.032267,0,13,89
-0.014703,0,14,89
-0.032566,0,15,89
0.014524,0,16,89
0.021671,0,17,89
-0.05342,0,18,89
-0.073795,0,19,89
-0.068426,0,20,89
-0.031688,0,21,89
-0.04241,0,22,89
-0.054024,0,23,89
-0.028953,0,24,89
-0.016174,0,25,89
0.046407,0,26,89
-0.030661,0,27,89
-0.043694,0,28,89
-0.048407,0,29,89
-0.017357,0,30,89
0.010017,0,31,89
-0.025394,0,32,89
0.027449,0,33,89
0.035946,0,34,89
0.060205,0,35,89
0.013398,0,36,89
0.050892,0,37,89
0.054965,0,38,89
0.02148,0,39,89
-0.040628,0,40,89
-0.032045,0,41,89
-0.012096,0,42,89
0.044424,0,43,89
0.032745,0,44,89
0.064596,0,45,89
0.050586,0,46,89
0.050188,0,47,89
0.024414,0,48,89
-0.039625,0,49,89
-0.05515,0,50,89
0.012098,0,51,89
0.042394,0,52,89
-0.027463,0,53,89
-0.031258,0,54,89
-0.022753,0,55,89
-0.027491,0,56,89
0.040755,0,57,89
0.04038,0,58,89
-0.016567,0,59,89
-0.017715,0,60,89
-0.018973,0,61,89
0.017384,0,62,89
-0.020566,0,63,89
0.032443,0,64,89
0.050641,0,65,89
0.053188,0,66,89
0.063836,0,67,89
0.016794,0,68,89
0.028834,0,69,89
0.030226,0,70,89
-0.022478,0,71,89
-0.049691,0,72,89
-0.052719,0,73,89
-0.028057,0,74,89
0.011599,0,75,89
0.028846,0,76,89
-0.040791,0,77,89
-0.046912,0,78,89
-0.021228,0,79,89
-0.021229,0,80,89
0.054297,0,81,89
0.028248,0,82,89
-0.010253,0,83,89
-0.033984,0,84,89
-0.020571,0,85,89
0.050242,0,86,89
-0.022893,0,87,89
-0.041928,0,88,89
-0.035302,0,89,89
0.034264,0,90,89
0.056691,0,91,89
0.041629,0,92,89
-0.041049,0,93,89
-0.050983,0,94,89
-0.020206,0,95,89
-0.026599,0,96,89
0.037192,0,97,89
0.049837,0,98,89
0.014989,0,99,89
-0.014865,0,100,89
0.018344,0,101,89
0.011941,0,102,89
-0.047209,0,103,89
-0.046336,0,104,89
-0.053673,0,105,89
-0.023397,0,106,89
-0.019769,0,107,89
-0.034044,0,108,89
0.029303,0,109,89
0.048047,0,110,89
0.066254,0,111,89
0.041693,0,112,89
0.048272,0,113,89
0.02824,0,114,89
-0.035121,0,115,89
-0.081416,0,116,89
-0.10504,0,117,89
-0.089571,0,118,89
-0.060201,0,119,89
0.12598,0,120,89
0.15424,0,121,89
0.16702,0,122,89
0.12822,0,123,89
-0.011767,0,124,89
0.044447,0,125,89
-0.017404,0,126,89
-0.12101,0,127,89
-0.2017,0,128,89
-0.28931,0,129,89
-0.26522,0,130,89
-0.20831,0,131,89
-0.22925,0,132,89
-0.22092,0,133,89
0.05887,0,134,89
0.35553,0,135,89
0.62579,0,136,89
0.86056,0,137,89
0.65323,0,138,89
0.23925,0,139,89
-0.3461,0,140,89
-0.8305,0,141,89
-1.0468,0,142,89
-0.9544,0,143,89
-0.38146,0,144,89
0.16952,0,145,89
0.58448,0,146,89
0.67105,0,147,89
0.33292,0,148,89
-0.084757,0,149,89
0.40654,0,150,89
0.74034,0,151,89
1.0653,0,152,89
0.7577,0,153,89
-0.30643,0,154,89
-1.237,0,155,89
-1.5166,0,156,89
-1.3791,0,157,89
-0.63784,0,158,89
-0.18093,0,159,89
0.081195,0,160,89
0.25321,0,161,89
-0.52021,0,162,89
-0.55414,0,163,89
0.46248,0,164,89
1.1989,0,165,89
1.7117,0,166,89
1.5379,0,167,89
0.58168,0,168,89
-0.73792,0,169,89
-1.459,0,170,89
-1.5059,0,171,89
-1.0819,0,172,89
-0.28595,0,173,89
0.36078,0,174,89
0.55923,0,175,89
1.0083,0,176,89
1.7609,0,177,89
1.5533,0,178,89
1.2892,0,179,89
1.2962,0,180,89
0.95692,0,181,89
0.55504,0,182,89
-0.1116,0,183,89
-0.91558,0,184,89
-1.3896,0,185,89
-1.2378,0,186,89
-0.91598,0,187,89
-0.40649,0,188,89
-0.26125,0,189,89
-0.48507,0,190,89
-0.59458,0,191,89
-0.11552,0,192,89
0.2899,0,193,89
-0.10939,0,194,89
-0.75088,0,195,89
-0.4158,0,196,89
-1.1788,0,197,89
-1.9314,0,198,89
-1.1615,0,199,89
-0.74348,0,200,89
-0.67011,0,201,89
-0.55895,0,202,89
-1.0049,0,203,89
-1.2203,0,204,89
-1.5145,0,205,89
0.91629,0,206,89
1.7199,0,207,89
1.9302,0,208,89
2.257,0,209,89
2.0028,0,210,89
1.83,0,211,89
1.0125,0,212,89
-0.04586,0,213,89
-0.8235,0,214,89
-0.99981,0,215,89
-0.1388,0,216,89
1.0476,0,217,89
2.8659,0,218,89
3.3207,0,219,89
1.6463,0,220,89
-0.56802,0,221,89
-2.2603,0,222,89
-1.742,0,223,89
-0.61056,0,224,89
0.11086,0,225,89
0.41645,0,226,89
0.49775,0,227,89
0.57736,0,228,89
0.10225,0,229,89
-0.32767,0,230,89
-0.81183,0,231,89
-0.85654,0,232,89
-0.7752,0,233,89
-1.0585,0,234,89
-1.4545,0,235,89
-1.4893,0,236,89
-1.7424,0,237,89
-1.8112,0,238,89
-1.6368,0,239,89
-1.135,0,240,89
-0.64217,0,241,89
-0.19155,0,242,89
0.32033,0,243,89
-0.047805,0,244,89
-0.61497,0,245,89
-1.4888,0,246,89
-2.3304,0,247,89
-2.2152,0,248,89
-1.6259,0,249,89
-1.4944,0,250,89
-1.3324,0,251,89
-1.2321,0,252,89
-1.1075,0,253,89
-0.64843,0,254,89
-0.59078,0,255,89
-0.60755,0,0,89
-0.56094,0,1,89
-0.46953,0,2,89
-0.44794,0,3,89
0.075738,0,4,89
0.84728,0,5,89
1.1434,0,6,89
0.80414,0,7,89
0.17979,0,8,89
0.066548,0,9,89
-0.020044,0,10,89
0.14296,0,11,89
0.15155,0,12,89
0.21414,0,13,89
0.49593,0,14,89
1.1918,0,15,89
1.6329,0,16,89
1.8967,0,17,89
2.1221,0,18,89
2.369,0,19,89
2.2678,0,20,89
0.94504,0,21,89
-0.17179,0,22,89
-0.4551,0,23,89
-0.29246,0,24,89
-0.13382,0,25,89
0.35703,0,26,89
0.69329,0,27,89
0.64801,0,28,89
0.55661,0,29,89
0.5615,0,30,89
0.94616,0,31,89
1.824,0,32,89
2.5076,0,33,89
2.0018,0,34,89
0.66975,0,35,89
-0.15373,0,36,89
-1.1517,0,37,89
-1.4073,0,38,89
-1.292,0,39,89
-1.0471,0,40,89
-0.014603,0,41,89
1.0097,0,42,89
1.3929,0,43,89
1.6387,0,44,89
1.6197,0,45,89
1.3368,0,46,89
0.81687,0,47,89
0.89389,0,48,89
0.194,0,49,89
-0.53772,0,50,89
-1.4382,0,51,89
-1.8016,0,52,89
-0.86794,0,53,89
0.6904,0,54,89
1.3617,0,55,89
1.0793,0,56,89
-0.43297,0,57,89
-2.3572,0,58,89
-3.2415,0,59,89
-2.5871,0,60,89
-1.5622,0,61,89
-0.4748,0,62,89
0.76923,0,63,89
1.5345,0,64,89
0.92938,0,65,89
-0.043868,0,66,89
-0.57933,0,67,89
-0.22711,0,68,89
0.99152,0,69,89
0.61061,0,70,89
-0.4758,0,71,89
-0.96667,0,72,89
-1.2821,0,73,89
-1.9095,0,74,89
-2.3624,0,75,89
-2.178,0,76,89
-0.87848,0,77,89
0.40712,0,78,89
1.1771,0,79,89
1.0853,0,80,89
1.1685,0,81,89
0.85243,0,82,89
-0.10546,0,83,89
-0.87079,0,84,89
-0.94573,0,85,89
-0.8893,0,86,89
-1.0861,0,87,89
0.12534,0,88,89
0.62261,0,89,89
-0.0557,0,90,89
-0.99028,0,91,89
-1.026,0,92,89
-0.72847,0,93,89
-0.94584,0,94,89
-1.0301,0,95,89
0.01215,0,96,89
1.3075,0,97,89
2.5169,0,98,89
2.3809,0,99,89
0.70363,0,100,89
-1.0092,0,101,89
-1.6621,0,102,89
-1.6143,0,103,89
0.066243,0,104,89
0.46771,0,105,89
-0.15648,0,106,89
-0.8421,0,107,89
-1.2048,0,108,89
-1.25,0,109,89
-0.66726,0,110,89
1.4675,0,111,89
2.6349,0,112,89
2.0521,0,113,89
0.81138,0,114,89
-0.40643,0,115,89
0.58015,0,116,89
0.71249,0,117,89
0.16858,0,118,89
-0.33613,0,119,89
-0.85213,0,120,89
-1.2396,0,121,89
-0.12614,0,122,89
0.91627,0,123,89
0.88064,0,124,89
0.72598,0,125,89
0.34688,0,126,89
0.11629,0,127,89
0.30949,0,128,89
2.0039,0,129,89
3.299,0,130,89
2.6403,0,131,89
1.8617,0,132,89
-1.9765,0,133,89
-2.6158,0,134,89
-2.4194,0,135,89
-2.1163,0,136,89
-1.7955,0,137,89
-1.3148,0,138,89
-0.70522,0,139,89
0.23232,0,140,89
1.1921,0,141,89
3.3398,0,142,89
2.9498,0,143,89
0.2313,0,144,89
-2.0813,0,145,89
-3.3067,0,146,89
-2.4672,0,147,89
0.36054,0,148,89
0.91919,0,149,89
0.10126,0,150,89
-0.83371,0,151,89
-1.2024,0,152,89
-1.3905,0,153,89
0.67835,0,154,89
1.6001,0,155,89
1.5122,0,156,89
0.91493,0,157,89
-0.61469,0,158,89
-2.3385,0,159,89
-3.2027,0,160,89
-2.2987,0,161,89
-0.46816,0,162,89
1.3103,0,163,89
1.7696,0,164,89
1.6025,0,165,89
2.3641,0,166,89
1.4869,0,167,89
-0.39653,0,168,89
-2.0812,0,169,89
-1.8125,0,170,89
-0.90738,0,171,89
-1.3021,0,172,89
-0.64775,0,173,89
0.72646,0,174,89
1.2104,0,175,89
0.73403,0,176,89
-0.31166,0,177,89
0.19281,0,178,89
0.20649,0,179,89
0.85268,0,180,89
2.7875,0,181,89
2.4582,0,182,89
0.23369,0,183,89
-1.3227,0,184,89
-2.5103,0,185,89
-2.746,0,186,89
-2.2166,0,187,89
-0.99937,0,188,89
0.20782,0,189,89
1.2846,0,190,89
2.7781,0,191,89
1.7771,0,192,89
0.055058,0,193,89
-1.3085,0,194,89
-1.7663,0,195,89
-0.90946,0,196,89
-0.43132,0,197,89
1.535,0,198,89
1.4297,0,199,89
0.81315,0,200,89
0.28329,0,201,89
-0.66426,0,202,89
-1.5804,0,203,89
-2.2105,0,204,89
-1.649,0,205,89
-1.0379,0,206,89
0.49576,0,207,89
3.6972,0,208,89
1.0795,0,209,89
-0.78219,0,210,89
-2.2447,0,211,89
-2.9616,0,212,89
-2.4816,0,213,89
-1.2147,0,214,89
0.73098,0,215,89
1.5589,0,216,89
1.2214,0,217,89
1.3929,0,218,89
2.8558,0,219,89
3.2772,0,220,89
0.54889,0,221,89
-2.0477,0,222,89
-2.9813,0,223,89
-3.2281,0,224,89
-2.1295,0,225,89
0.29184,0,226,89
1.7367,0,227,89
1.8925,0,228,89
1.0205,0,229,89
-0.30897,0,230,89
-1.0609,0,231,89
1.2767,0,232,89
1.5915,0,233,89
0.22913,0,234,89
-1.0652,0,235,89
-1.6816,0,236,89
-0.64728,0,237,89
1.1436,0,238,89
1.2453,0,239,89
0.27964,0,240,89
-0.67387,0,241,89
-1.5699,0,242,89
-1.9312,0,243,89
-1.2182,0,244,89
-0.012366,0,245,89
1.5348,0,246,89
3.7758,0,247,89
2.4572,0,248,89
0.29582,0,249,89
-1.1957,0,250,89
-1.8644,0,251,89
-1.9352,0,252,89
-1.6462,0,253,89
-0.92068,0,254,89
0.51611,0,255,89
1.6943,0,0,89
1.9747,0,1,89
2.0363,0,2,89
0.91777,0,3,89
0.13106,0,4,89
-1.3092,0,5,89
-2.2416,0,6,89
-2.1819,0,7,89
-1.7151,0,8,89
-0.72277,0,9,89
1.5272,0,10,89
1.7631,0,11,89
1.2916,0,12,89
0.7094,0,13,89
0.40673,0,14,89
-0.20769,0,15,89
-0.069528,0,16,89
0.16104,0,17,89
-0.25201,0,18,89
-0.027302,0,19,89
0.72036,0,20,89
-0.093726,0,21,89
-0.61319,0,22,89
-0.2799,0,23,89
-0.43695,0,24,89
-0.90376,0,25,89
-0.90035,0,26,89
-0.40201,0,27,89
0.3133,0,28,89
0.91873,0,29,89
1.6336,0,30,89
1.4045,0,31,89
1.3236,0,32,89
0.37832,0,33,89
-0.85241,0,34,89
-1.8828,0,35,89
-2.2242,0,36,89
-1.5623,0,37,89
-0.55651,0,38,89
0.21544,0,39,89
0.3756,0,40,89
0.62617,0,41,89
0.33472,0,42,89
-0.015429,0,43,89
0.25997,0,44,89
1.1104,0,45,89
0.72414,0,46,89
-0.12022,0,47,89
-0.75711,0,48,89
-0.86406,0,49,89
-0.40115,0,50,89
-0.11911,0,51,89
0.17098,0,52,89
0.071955,0,53,89
0.44587,0,54,89
0.8863,0,55,89
0.45001,0,56,89
-0.45446,0,57,89
-0.99543,0,58,89
-0.97236,0,59,89
0.082902,0,60,89
0.79179,0,61,89
0.7804,0,62,89
0.22338,0,63,89
-0.45095,0,64,89
-0.342,0,65,89
0.38031,0,66,89
1.0093,0,67,89
1.1694,0,68,89
0.029003,0,69,89
-0.88473,0,70,89
-0.75106,0,71,89
-0.69015,0,72,89
-0.12899,0,73,89
0.060282,0,74,89
-0.18486,0,75,89
0.020787,0,76,89
0.017315,0,77,89
0.54762,0,78,89
0.39972,0,79,89
0.15349,0,80,89
-0.55243,0,81,89
-0.96244,0,82,89
-0.55118,0,83,89
-0.13475,0,84,89
0.6396,0,85,89
1.3946,0,86,89
1.5924,0,87,89
1.8964,0,88,89
0.47157,0,89,89
-1.0436,0,90,89
-2.1486,0,91,89
-2.2979,0,92,89
-0.98067,0,93,89
0.16989,0,94,89
1.0071,0,95,89
0.79759,0,96,89
0.21779,0,97,89
0.65334,0,98,89
0.83731,0,99,89
0.14797,0,100,89
-0.51377,0,101,89
-0.48538,0,102,89
-0.2982,0,103,89
-0.019671,0,104,89
0.11554,0,105,89
0.13429,0,106,89
0.37758,0,107,89
0.22854,0,108,89
-0.42716,0,109,89
-0.27765,0,110,89
-0.73718,0,111,89
0.037366,0,112,89
0.40562,0,113,89
0.17139,0,114,89
0.2956,0,115,89
-0.44637,0,116,89
-0.56996,0,117,89
-0.44299,0,118,89
0.79864,0,119,89
0.54239,0,120,89
0.24297,0,121,89
-0.64471,0,122,89
-1.0194,0,123,89
-0.33186,0,124,89
0.52782,0,125,89
0.66741,0,126,89
0.61494,0,127,89
0.53398,0,128,89
0.48452,0,129,89
0.070662,0,130,89
-0.42616,0,131,89
-0.85135,0,132,89
-0.6826,0,133,89
-0.53983,0,134,89
-0.26368,0,135,89
0.55772,0,136,89
0.69404,0,137,89
0.26313,0,138,89
0.10233,0,139,89
0.50823,0,140,89
0.62526,0,141,89
0.16553,0,142,89
-0.6502,0,143,89
-1.2463,0,144,89
-1.0559,0,145,89
-0.3316,0,146,89
0.53251,0,147,89
0.59418,0,148,89
0.64037,0,149,89
0.40345,0,150,89
-0.059665,0,151,89
-0.34454,0,152,89
-0.44097,0,153,89
-0.032303,0,154,89
0.22506,0,155,89
-0.031522,0,156,89
-0.27827,0,157,89
-0.39846,0,158,89
-0.64855,0,159,89
-0.55274,0,160,89
-0.21833,0,161,89
0.46361,0,162,89
0.95426,0,163,89
0.99778,0,164,89
0.4292,0,165,89
-0.29769,0,166,89
-0.59786,0,167,89
-0.32175,0,168,89
-0.38226,0,169,89
0.012572,0,170,89
0.35418,0,171,89
0.4784,0,172,89
0.025701,0,173,89
-0.40881,0,174,89
-0.30649,0,175,89
0.40459,0,176,89
0.68151,0,177,89
0.72323,0,178,89
0.28529,0,179,89
0.042954,0,180,89
0.089062,0,181,89
-0.20643,0,182,89
-1.0147,0,183,89
-1.4838,0,184,89
-0.47846,0,185,89
0.043846,0,186,89
0.59032,0,187,89
0.50147,0,188,89
0.37693,0,189,89
0.2564,0,190,89
0.32858,0,191,89
0.13106,0,192,89
0.14603,0,193,89
0.39869,0,194,89
0.66962,0,195,89
0.20348,0,196,89
-0.83148,0,197,89
-1.232,0,198,89
-0.60132,0,199,89
-0.27009,0,200,89
-0.12764,0,201,89
0.2025,0,202,89
0.96014,0,203,89
1.1084,0,204,89
0.56379,0,205,89
0.3208,0,206,89
-0.49421,0,207,89
-0.94806,0,208,89
-0.73536,0,209,89
-0.16918,0,210,89
0.10185,0,211,89
0.93336,0,212,89
1.1985,0,213,89
0.30976,0,214,89
-0.39717,0,215,89
-0.99977,0,216,89
-0.29684,0,217,89
-0.085012,0,218,89
0.19299,0,219,89
0.30753,0,220,89
0.21196,0,221,89
0.14125,0,222,89
0.48866,0,223,89
0.1371,0,224,89
-0.47245,0,225,89
-0.83178,0,226,89
-0.72702,0,227,89
-0.95407,0,228,89
-1.1708,0,229,89
-0.53836,0,230,89
0.025085,0,231,89
0.51897,0,232,89
0.79531,0,233,89
0.55853,0,234,89
0.15226,0,235,89
0.17516,0,236,89
0.094519,0,237,89
0.1747,0,238,89
0.86684,0,239,89
0.68937,0,240,89
-0.26884,0,241,89
-0.99345,0,242,89
-1.0434,0,243,89
-0.73982,0,244,89
-0.63594,0,245,89
-0.40975,0,246,89
0.64923,0,247,89
0.99265,0,248,89
0.78402,0,249,89
0.72327,0,250,89
0.52355,0,251,89
0.43222,0,252,89
-0.42184,0,253,89
-0.7952,0,254,89
-1.0021,0,255,89
-0.91353,0,0,89
-0.071391,0,1,89
0.43742,0,2,89
0.79687,0,3,89
0.27182,0,4,89
0.32546,0,5,89
0.66243,0,6,89
0.5098,0,7,89
-0.60266,0,8,89
-0.29237,0,9,89
-0.29154,0,10,89
-0.27872,0,11,89
0.23868,0,12,89
0.10698,0,13,89
0.43458,0,14,89
0.29427,0,15,89
-0.35089,0,16,89
-0.74677,0,17,89
0.27648,0,18,89
1.2141,0,19,89
1.2504,0,20,89
0.34531,0,21,89
-1.2039,0,22,89
-1.9595,0,23,89
-1.7878,0,24,89
-0.63425,0,25,89
0.79061,0,26,89
0.88857,0,27,89
0.4536,0,28,89
-0.055358,0,29,89
0.35338,0,30,89
0.60024,0,31,89
0.55627,0,32,89
1.0307,0,33,89
0.4011,0,34,89
-0.41909,0,35,89
-0.61745,0,36,89
-0.70013,0,37,89
-0.40145,0,38,89
-0.33878,0,39,89
-0.16473,0,40,89
0.38584,0,41,89
1.0432,0,42,89
0.79815,0,43,89
-0.12022,0,44,89
-0.33754,0,45,89
-1.021,0,46,89
-0.89483,0,47,89
-0.36626,0,48,89
1.1615,0,49,89
1.2966,0,50,89
0.36647,0,51,89
-0.87403,0,52,89
-1.354,0,53,89
-0.68134,0,54,89
0.41857,0,55,89
1.3098,0,56,89
1.3525,0,57,89
1.0334,0,58,89
-0.11925,0,59,89
-1.943,0,60,89
-2.4428,0,61,89
-1.6204,0,62,89
-0.18006,0,63,89
0.82493,0,64,89
1.3891,0,65,89
1.6379,0,66,89
0.67266,0,67,89
-0.43188,0,68,89
-0.92737,0,69,89
-0.50023,0,70,89
0.835,0,71,89
1.1241,0,72,89
0.66209,0,73,89
-0.37172,0,74,89
-0.33995,0,75,89
-0.056814,0,76,89
-0.23567,0,77,89
-0.54457,0,78,89
-0.90585,0,79,89
-0.97316,0,80,89
0.10836,0,81,89
1.2778,0,82,89
0.71963,0,83,89
0.41648,0,84,89
0.11473,0,85,89
-0.19293,0,86,89
-0.77744,0,87,89
-1.0352,0,88,89
-1.0149,0,89,89
0.60426,0,90,89
0.96043,0,91,89
0.58842,0,92,89
-0.17543,0,93,89
-0.92897,0,94,89
-1.1456,0,95,89
-0.90686,0,96,89
0.40954,0,97,89
1.5908,0,98,89
1.2928,0,99,89
0.34823,0,100,89
-0.56694,0,101,89
-1.0363,0,102,89
-0.21112,0,103,89
0.10702,0,104,89
0.056172,0,105,89
0.1879,0,106,89
0.48191,0,107,89
0.50323,0,108,89
0.46276,0,109,89
0.712,0,110,89
0.88728,0,111,89
-0.023176,0,112,89
-0.98725,0,113,89
-1.3823,0,114,89
-0.75698,0,115,89
0.72608,0,116,89
0.88493,0,117,89
0.23064,0,118,89
-0.44022,0,119,89
-0.80208,0,120,89
-0.72198,0,121,89
-0.34996,0,122,89
0.17467,0,123,89
-0.17833,0,124,89
-0.43205,0,125,89
-0.68179,0,126,89
-0.21698,0,127,89
1.3119,0,128,89
2.0718,0,129,89
0.7361,0,130,89
-0.49569,0,131,89
-1.3181,0,132,89
-1.2439,0,133,89
-0.17862,0,134,89
0.69154,0,135,89
0.63231,0,136,89
0.35836,0,137,89
0.055242,0,138,89
-0.073156,0,139,89
0.25625,0,140,89
0.63983,0,141,89
0.54186,0,142,89
0.19561,0,143,89
-0.23321,0,144,89
-0.17951,0,145,89
0.39876,0,146,89
0.37415,0,147,89
-0.34227,0,148,89
-0.68227,0,149,89
-0.6984,0,150,89
0.11544,0,151,89
1.5445,0,152,89
0.72733,0,153,89
-0.61396,0,154,89
-1.5686,0,155,89
-1.5956,0,156,89
-0.98709,0,157,89
-0.043802,0,158,89
0.47665,0,159,89
0.63975,0,160,89
0.21768,0,161,89
-0.1761,0,162,89
-0.063334,0,163,89
0.55625,0,164,89
0.57729,0,165,89
0.38901,0,166,89
0.32384,0,167,89
-0.24158,0,168,89
-0.18601,0,169,89
-0.24192,0,170,89
0.032317,0,171,89
0.49421,0,172,89
0.61206,0,173,89
0.31446,0,174,89
-0.1782,0,175,89
-0.48065,0,176,89
-0.45464,0,177,89
0.42835,0,178,89
1.0496,0,179,89
0.9396,0,180,89
-0.37505,0,181,89
-1.782,0,182,89
-2.1519,0,183,89
-1.2138,0,184,89
-0.31265,0,185,89
0.23217,0,186,89
0.30611,0,187,89
0.28581,0,188,89
0.25417,0,189,89
0.44957,0,190,89
0.53316,0,191,89
0.2784,0,192,89
0.01212,0,193,89
-0.060348,0,194,89
0.38549,0,195,89
0.83067,0,196,89
0.69547,0,197,89
-0.055313,0,198,89
-0.69112,0,199,89
-0.51403,0,200,89
-0.35417,0,201,89
-0.39222,0,202,89
-0.17684,0,203,89
0.158,0,204,89
0.42631,0,205,89
0.46,0,206,89
0.22493,0,207,89
0.015227,0,208,89
0.16803,0,209,89
0.11069,0,210,89
0.076481,0,211,89
0.036808,0,212,89
-0.040739,0,213,89
0.14891,0,214,89
0.30012,0,215,89
0.026324,0,216,89
-0.11103,0,217,89
-0.12241,0,218,89
0.87063,0,219,89
0.38686,0,220,89
-0.59756,0,221,89
-1.0584,0,222,89
-0.61716,0,223,89
0.029464,0,224,89
-0.071312,0,225,89
-0.72456,0,226,89
-0.71771,0,227,89
-0.12214,0,228,89
0.31791,0,229,89
0.5567,0,230,89
0.21943,0,231,89
-0.2112,0,232,89
-0.35713,0,233,89
0.32129,0,234,89
0.38073,0,235,89
0.28347,0,236,89
0.34056,0,237,89
0.11539,0,238,89
-0.072439,0,239,89
-0.034834,0,240,89
0.014451,0,241,89
0.18227,0,242,89
0.36524,0,243,89
0.038186,0,244,89
-0.45676,0,245,89
-0.38505,0,246,89
0.020399,0,247,89
0.28208,0,248,89
0.46217,0,249,89
0.56826,0,250,89
0.20996,0,251,89
-0.26599,0,252,89
-0.30136,0,253,89
-0.36362,0,254,89
-0.16987,0,255,89
-0.069768,0,0,89
0.038305,0,1,89
-0.1717,0,2,89
-0.34502,0,3,89
0.53885,0,4,89
0.76176,0,5,89
-0.12117,0,6,89
-0.89392,0,7,89
-1.081,0,8,89
-0.55726,0,9,89
0.065167,0,10,89
0.47114,0,11,89
0.39694,0,12,89
0.070112,0,13,89
0.025691,0,14,89
0.089383,0,15,89
0.51746,0,16,89
0.42444,0,17,89
-0.30019,0,18,89
-0.82045,0,19,89
-0.71555,0,20,89
-0.09099,0,21,89
0.30981,0,22,89
0.25779,0,23,89
-0.12842,0,24,89
-0.15055,0,25,89
-0.082594,0,26,89
0.20665,0,27,89
0.69352,0,28,89
0.99253,0,29,89
0.55977,0,30,89
-0.16043,0,31,89
-0.55582,0,32,89
-0.54815,0,33,89
-0.095376,0,34,89
0.021443,0,35,89
-0.11755,0,36,89
-0.41784,0,37,89
-0.43887,0,38,89
-0.066152,0,39,89
0.73956,0,40,89
0.77017,0,41,89
0.48585,0,42,89
-0.17596,0,43,89
-0.71786,0,44,89
-0.73423,0,45,89
-0.13263,0,46,89
0.30764,0,47,89
0.55761,0,48,89
0.73613,0,49,89
0.5373,0,50,89
0.30408,0,51,89
-0.15877,0,52,89
-0.14081,0,53,89
0.023277,0,54,89
0.090915,0,55,89
0.46092,0,56,89
0.46612,0,57,89
-0.13457,0,58,89
-0.74735,0,59,89
-0.43625,0,60,89
0.036116,0,61,89
0.35961,0,62,89
0.08524,0,63,89
-0.4013,0,64,89
-0.72709,0,65,89
-0.88348,0,66,89
-0.38936,0,67,89
0.18121,0,68,89
0.27301,0,69,89
0.017777,0,70,89
0.030661,0,71,89
0.34577,0,72,89
0.17847,0,73,89
-0.078976,0,74,89
-0.17973,0,75,89
-0.22566,0,76,89
0.2113,0,77,89
0.38241,0,78,89
0.012851,0,79,89
-0.20589,0,80,89
-0.10209,0,81,89
0.020221,0,82,89
0.052482,0,83,89
0.23658,0,84,89
0.27527,0,85,89
0.062904,0,86,89
-0.32835,0,87,89
-0.6735,0,88,89
-0.67377,0,89,89
-0.38175,0,90,89
0.33595,0,91,89
0.62354,0,92,89
0.50192,0,93,89
0.30184,0,94,89
0.12886,0,95,89
0.083278,0,96,89
-0.20312,0,97,89
-0.18839,0,98,89
-0.32157,0,99,89
-0.40045,0,100,89
-0.48386,0,101,89
-0.28096,0,102,89
-0.042742,0,103,89
0.30015,0,104,89
0.23747,0,105,89
-0.046279,0,106,89
-0.090786,0,107,89
0.087163,0,108,89
0.16121,0,109,89
1.0967,0,110,89
0.66482,0,111,89
-0.23763,0,112,89
-0.92942,0,113,89
-0.69885,0,114,89
-0.16799,0,115,89
0.62108,0,116,89
0.63101,0,117,89
0.22508,0,118,89
-0.33325,0,119,89
-0.2119,0,120,89
0.35314,0,121,89
0.31807,0,122,89
0.055116,0,123,89
-0.26627,0,124,89
0.051006,0,125,89
0.24641,0,126,89
0.16608,0,127,89
-0.2914,0,128,89
-0.60486,0,129,89
-0.53246,0,130,89
0.15204,0,131,89
0.62075,0,132,89
0.77974,0,133,89
0.65466,0,134,89
0.42516,0,135,89
-0.24362,0,136,89
-0.84426,0,137,89
-0.43902,0,138,89
0.021665,0,139,89
-0.19595,0,140,89
-0.508,0,141,89
-0.71752,0,142,89
-0.70239,0,143,89
-0.1991,0,144,89
0.70942,0,145,89
0.78827,0,146,89
0.45721,0,147,89
-0.11285,0,148,89
-0.22496,0,149,89
-0.011158,0,150,89
0.20494,0,151,89
0.16844,0,152,89
0.28899,0,153,89
0.98408,0,154,89
0.49858,0,155,89
-0.1853,0,156,89
-0.57322,0,157,89
-0.54199,0,158,89
0.34132,0,159,89
0.67392,0,160,89
0.067119,0,161,89
-0.58047,0,162,89
-1.071,0,163,89
-1.1011,0,164,89
-0.48757,0,165,89
0.19367,0,166,89
0.48381,0,167,89
0.32307,0,168,89
0.12599,0,169,89
0.24381,0,170,89
0.15475,0,171,89
0.066663,0,172,89
-0.16432,0,173,89
-0.10875,0,174,89
0.13394,0,175,89
0.22015,0,176,89
0.23707,0,177,89
0.16071,0,178,89
-0.034929,0,179,89
0.080433,0,180,89
0.32314,0,181,89
0.076387,0,182,89
-0.14802,0,183,89
-0.30778,0,184,89
-0.39708,0,185,89
0.35057,0,186,89
0.90504,0,187,89
0.7998,0,188,89
-0.047489,0,189,89
-0.91616,0,190,89
-1.4089,0,191,89
-1.4583,0,192,89
-0.75507,0,193,89
0.043638,0,194,89
0.36055,0,195,89
0.76783,0,196,89
1.0649,0,197,89
0.53835,0,198,89
-0.50916,0,199,89
-0.53495,0,200,89
-0.52941,0,201,89
-0.36568,0,202,89
-0.13832,0,203,89
0.12286,0,204,89
0.24106,0,205,89
0.21059,0,206,89
0.25433,0,207,89
0.51533,0,208,89
0.77186,0,209,89
1.3625,0,210,89
0.69995,0,211,89
-0.15854,0,212,89
-0.69636,0,213,89
-1.0235,0,214,89
-1.0793,0,215,89
-0.27922,0,216,89
0.58587,0,217,89
0.81527,0,218,89
0.56615,0,219,89
0.086849,0,220,89
-0.32295,0,221,89
-0.82655,0,222,89
-1.0114,0,223,89
-0.73981,0,224,89
-0.14503,0,225,89
0.27588,0,226,89
0.50223,0,227,89
0.45823,0,228,89
0.045828,0,229,89
-0.25785,0,230,89
-0.22345,0,231,89
0.45619,0,232,89
1.0698,0,233,89
1.1727,0,234,89
0.56277,0,235,89
-0.26033,0,236,89
-0.78425,0,237,89
-0.89528,0,238,89
-0.6188,0,239,89
-0.25528,0,240,89
-0.035446,0,241,89
0.1468,0,242,89
0.40852,0,243,89
0.42394,0,244,89
0.38612,0,245,89
0.29119,0,246,89
0.096853,0,247,89
-0.26003,0,248,89
-0.4486,0,249,89
-0.28949,0,250,89
0.26018,0,251,89
0.42046,0,252,89
0.34776,0,253,89
-0.014472,0,254,89
-0.33903,0,255,89
-0.57928,0,0,89
-0.64257,0,1,89
-0.57451,0,2,89
-0.24767,0,3,89
0.3595,0,4,89
0.36985,0,5,89
0.25305,0,6,89
-0.014098,0,7,89
-0.14906,0,8,89
0.28212,0,9,89
0.44287,0,10,89
0.70256,0,11,89
0.69005,0,12,89
-0.55434,0,13,89
-0.57112,0,14,89
-0.47704,0,15,89
-0.62777,0,16,89
-0.63143,0,17,89
-0.50826,0,18,89
-0.13276,0,19,89
-0.10277,0,20,89
-0.040419,0,21,89
0.25211,0,22,89
0.95296,0,23,89
0.70324,0,24,89
0.17529,0,25,89
-0.24168,0,26,89
-0.17898,0,27,89
0.19507,0,28,89
0.11792,0,29,89
-0.06101,0,30,89
-0.14995,0,31,89
-0.21895,0,32,89
-0.36925,0,33,89
-0.36187,0,34,89
0.21641,0,35,89
0.67166,0,36,89
0.67355,0,37,89
0.35446,0,38,89
-0.05053,0,39,89
-0.40868,0,40,89
-0.56944,0,41,89
0.05502,0,42,89
0.47703,0,43,89
0.62808,0,44,89
0.43735,0,45,89
0.56482,0,46,89
-0.58547,0,47,89
-0.94058,0,48,89
-1.05,0,49,89
-0.83482,0,50,89
-0.16063,0,51,89
0.37622,0,52,89
0.56478,0,53,89
0.44393,0,54,89
0.19262,0,55,89
-0.052604,0,56,89
-0.32694,0,57,89
-0.32737,0,58,89
0.078932,0,59,89
0.44003,0,60,89
0.64356,0,61,89
0.35911,0,62,89
0.038832,0,63,89
0.056053,0,64,89
0.28418,0,65,89
0.22412,0,66,89
-0.013631,0,67,89
0.029047,0,68,89
0.32815,0,69,89
0.09978,0,70,89
-0.30197,0,71,89
-0.6665,0,72,89
-0.86935,0,73,89
-0.91909,0,74,89
-0.59022,0,75,89
-0.09804,0,76,89
0.67925,0,77,89
1.1237,0,78,89
1.3316,0,79,89
0.76421,0,80,89
-0.04999,0,81,89
-0.89755,0,82,89
-1.1219,0,83,89
-1.1982,0,84,89
-1.0091,0,85,89
-0.7183,0,86,89
-0.37606,0,87,89
-0.018519,0,88,89
0.26168,0,89,89
0.47474,0,90,89
0.77816,0,91,89
0.69487,0,92,89
0.46017,0,93,89
0.41952,0,94,89
0.51487,0,95,89
0.40947,0,96,89
0.13518,0,97,89
-0.041489,0,98,89
0.099932,0,99,89
0.22808,0,100,89
0.40178,0,101,89
0.67591,0,102,89
0.41173,0,103,89
-0.077973,0,104,89
-0.64206,0,105,89
-1.0823,0,106,89
-1.3038,0,107,89
-1.1332,0,108,89
-0.41217,0,109,89
0.53802,0,110,89
1.0241,0,111,89
0.75503,0,112,89
0.19894,0,113,89
-0.26193,0,114,89
-0.38774,0,115,89
-0.33682,0,116,89
-0.37559,0,117,89
-0.14449,0,118,89
0.12124,0,119,89
0.18341,0,120,89
0.3269,0,121,89
0.73784,0,122,89
0.84987,0,123,89
0.65,0,124,89
0.36778,0,125,89
0.069671,0,126,89
-0.23225,0,127,89
-0.64612,0,128,89
-0.9981,0,129,89
-1.2757,0,130,89
-1.0819,0,131,89
-0.57954,0,132,89
-0.21644,0,133,89
-0.09637,0,134,89
0.063878,0,135,89
0.87255,0,136,89
0.79438,0,137,89
0.34217,0,138,89
-0.086115,0,139,89
-0.45127,0,140,89
-0.56899,0,141,89
-0.44994,0,142,89
-0.0638,0,143,89
0.31274,0,144,89
0.45931,0,145,89
0.75047,0,146,89
0.57159,0,147,89
0.37258,0,148,89
0.2769,0,149,89
0.23695,0,150,89
-0.088863,0,151,89
-0.39175,0,152,89
-0.62172,0,153,89
-0.53073,0,154,89
-0.052331,0,155,89
0.4673,0,156,89
0.72582,0,157,89
0.63967,0,158,89
0.20324,0,159,89
-0.17738,0,160,89
-0.33898,0,161,89
-0.43081,0,162,89
-0.043983,0,163,89
0.33812,0,164,89
0.71737,0,165,89
1.3463,0,166,89
0.97337,0,167,89
0.19577,0,168,89
-0.8481,0,169,89
-1.5072,0,170,89
-1.5558,0,171,89
-1.2712,0,172,89
